1023
1023
1023
1023
1023
1023
1023
1023
1023
1023
1023
1023
1023
1023
1023
1023
1023
1023
1023
1023
1023
1023
1023
1023
1023
1023
1023
1023
1023
1023
1023
1023
1023
1023
1023
1023
1023
1023
1023
1023
1023
1023
1023
1023
1023
1023
1023
1023
1023
1023
1023
1023
1023
1023
1023
1023
1023
1023
1023
1023
1023
1023
1023
1023
1023
1023
1023
1023
1023
1023
1023
1023
1023
1023
1023
1023
1014
1020
1008
1002
1007
996
1001
991
998
993
995
987
990
983
992
988
1006
1000
1008
993
1001
992
992
985
976
967
950
943
930
929
916
918
904
905
895
889
873
874
861
864
853
860
848
850
842
847
867
852
838
819
824
810
814
801
805
797
805
799
805
800
825
829
844
843
861
865
880
892
904
929
952
1001
1023
1023
1023
1023
1023
1023
1023
1023
1023
1023
1023
1023
1023
1023
1023
1023
1023
1023
1023
1023
1023
1023
1023
1023
1023
1023
1023
1017
1023
1002
1016
1002
1011
1007
1017
1023
1023
1023
1023
1023
1023
1023
1023
1023
1023
1023
1023
1023
1023
1023
1023
1023
1023
1023
1023
1023
1023
1023
1023
1023
1023
1023
1023
1023
1023
1023
1023
1023
1023
1023
1023
1023
1023
1023
1023
1023
1023
1023
1023
1023
1023
1023
1023
1023
1023
1023
1023
1023
1023
1023
1023
1023
1023
1023
1023
1023
1023
1023
1023
1023
1023
1023
1023
1023
1023
1023
1023
1023
1023
1023
1023
1023
1023
1023
1023
1023
1023
1023
1023
1023
1023
1023
1023
1023
1023
1023
1023
1023
1023
1023
1023
1023
1023
1023
1023
1023
1023
1023
1023
1023
1023
1023
1023
1023
1023
1023
1023
1023
1023
1023
1023
1011
1003
968
894
960
1004
1023
1023
1023
1023
1023
1023
1023
1023
1023
1023
1023
1023
1023
1023
1023
1023
1023
1023
1023
1023
1023
1023
1023
1023
1023
1023
1023
1023
1023
1023
1023
1023
1023
1023
904
785
780
680
558
467
409
374
386
426
462
473
475
485
499
516
536
541
563
560
541
502
479
471
468
473
492
540
582
612
640
674
705
739
767
799
816
842
867
894
917
946
972
969
932
873
829
818
836
884
932
966
989
977
944
889
827
766
736
709
702
689
694
695
707
708
717
725
726
728
729
732
727
727
720
711
688
675
654
645
632
631
622
627
627
630
627
623
617
618
635
699
764
814
826
813
773
693
613
537
486
447
430
410
405
397
395
391
390
386
385
384
383
386
382
381
378
377
375
376
371
370
365
364
363
364
360
366
364
364
364
365
366
362
360
360
361
363
365
362
365
363
366
362
362
361
364
362
364
360
362
362
362
360
362
363
361
363
362
367
364
365
364
365
364
365
360
364
359
362
360
362
362
361
362
362
365
360
363
363
366
364
369
369
369
365
367
364
369
364
369
365
368
368
373
373
376
377
378
383
386
395
404
417
430
449
460
490
559
714
817
899
945
983
1006
1023
1023
1023
1023
1023
1023
1023
1023
1022
1021
1009
1003
983
983
967
968
944
939
908
949
1023
976
952
947
931
925
912
913
912
929
951
974
996
999
996
962
925
897
879
873
859
858
851
854
852
856
855
865
867
879
884
894
898
899
899
896
898
902
907
916
913
912
913
916
913
911
916
910
917
921
921
925
924
924
922
925
924
933
937
941
937
935
939
944
934
934
936
927
933
934
937
944
942
942
935
937
938
936
946
955
957
944
948
938
936
942
938
935
936
935
931
939
945
944
935
931
925
922
927
925
923
927
923
925
927
927
927
937
933
937
951
942
946
952
946
930
917
910
893
886
870
815
751
761
784
827
862
885
915
923
948
960
1023
1023
1023
1023
1023
1023
1020
999
1002
979
991
974
970
1007
1023
1023
1023
1023
1023
1023
1023
1023
1023
1023
1023
1023
1023
1023
1023
1023
1023
1023
1023
1023
1023
1023
1023
1023
1023
1023
1023
1023
1023
1023
1023
1023
1023
1023
1023
1023
1023
1023
1023
1023
1023
1023
1023
1023
1023
1023
1023
1023
1023
1023
1023
1023
1023
1023
1023
1023
1023
1023
1023
1023
1023
1023
1023
1023
1023
1023
1023
1023
1023
1023
1023
1023
1023
1023
1023
1023
1023
1023
1023
1023
1023
1023
1023
1023
1023
1023
1023
1023
1023
1023
1023
1023
1023
1023
1023
1023
1023
1023
1023
1023
1023
1023
1023
1023
1023
1023
1023
1023
1023
1023
1023
1023
1023
1023
1023
1023
1023
1023
1023
1023
1023
1023
1023
1023
1023
1023
1023
1023
1023
1023
1023
1023
1023
1023
1023
1023
1023
1023
1023
1023
1023
1023
1023
1023
1023
1023
1023
1023
1023
1023
1023
1023
1023
1023
1023
1023
1023
1023
1023
1023
1023
1023
1023
1023
1023
1023
1023
1023
1023
1023
1023
1023
1023
1023
1023
1023
1023
1023
1023
1023
1023
1023
1023
1023
1023
1023
1023
1023
1023
1023
1023
1023
1023
1023
1023
1023
1023
1023
1023
1023
1023
1023
1023
1023
1023
1023
1023
1023
1023
1023
1023
1023
1023
1023
1023
1023
1023
1023
1023
1023
1023
1023
1023
1023
1023
1023
1023
1023
1023
1023
1023
1023
1023
1023
1023
1023
1023
1023
1023
1023
1023
1023
1023
1023
1023
1023
1023
1023
1023
1023
1023
1023
1023
1023
1023
1023
1023
1023
1023
1023
1023
1023
1023
1023
1023
1023
1023
1023
1023
1023
1023
1023
1023
1023
1023
1023
1023
1023
1023
1023
821
827
831
837
836
836
833
834
831
838
837
840
831
836
828
831
827
831
831
826
832
829
834
840
849
849
858
859
865
859
866
865
869
865
864
858
852
850
850
854
848
852
851
859
863
862
858
865
860
865
865
868
867
875
866
865
860
864
862
857
858
854
858
858
863
858
866
863
867
864
869
871
876
860
857
848
853
860
875
882
892
904
915
929
934
938
934
940
943
945
939
948
944
954
947
950
942
944
939
939
939
942
953
954
960
960
966
965
963
960
964
959
965
960
965
957
958
960
966
966
956
953
945
949
945
949
951
958
958
956
948
953
950
962
953
963
957
958
956
959
960
956
959
954
958
958
953
946
949
944
952
951
960
954
960
957
959
951
951
950
953
953
947
944
942
945
943
949
944
943
939
948
948
954
949
958
951
953
954
959
955
958
956
946
946
945
954
953
951
949
951
952
954
951
960
957
957
954
954
958
956
959
950
957
953
950
949
958
955
960
954
955
955
965
959
962
959
959
954
960
959
959
959
952
960
964
965
964
968
961
968
963
973
970
976
969
971
963
974
971
977
970
968
970
964
965
959
971
963
968
963
973
962
972
967
973
969
982
969
973
970
974
971
963
964
961
970
970
971
961
955
949
948
936
941
932
932
916
907
899
892
878
859
845
817
789
714
787
883
1023
1023
1023
1023
1023
1023
1023
1023
1023
1023
1023
1023
1023
1023
1023
1023
1023
1023
1023
1023
1023
1023
1023
1023
1023
1023
1023
1023
1023
1023
1023
1023
1023
1023
1023
1023
1023
1023
1023
1023
1023
1023
1023
1023
1023
1023
1023
1023
1023
1023
1023
1023
1023
1023
1023
1023
1023
1023
1023
1023
1023
1023
1023
1023
1023
1023
1023
1023
1023
1023
1023
1023
1023
1023
1023
1023
1023
1023
1023
1023
1023
1023
1023
1023
1023
1023
1023
1023
1023
1023
1023
1023
1023
1023
1023
980
889
845
810
798
787
788
790
800
810
821
829
829
839
843
845
853
862
863
879
885
895
899
915
911
923
920
929
931
940
938
936
938
928
931
934
941
939
938
937
940
934
939
935
940
934
934
931
934
936
938
939
934
932
927
932
933
939
936
940
934
938
932
934
934
940
938
943
936
932
932
927
927
924
926
923
926
929
932
929
933
932
938
930
937
931
935
935
931
928
930
929
932
935
931
934
926
934
930
931
928
934
933
932
932
941
942
938
933
935
933
932
931
924
932
928
928
922
927
927
929
927
929
928
933
932
931
928
933
932
934
933
932
928
921
925
916
919
923
925
920
923
920
927
924
928
928
931
930
930
928
929
926
918
921
917
918
911
915
918
924
924
922
922
922
929
937
930
930
929
926
925
927
926
922
920
923
921
921
926
920
911
888
876
856
852
854
857
847
845
842
839
830
831
831
831
835
827
827
826
825
819
822
826
837
842
851
851
862
857
847
835
831
826
821
813
809
808
793
782
776
775
769
769
771
772
771
776
771
776
773
770
765
766
761
756
759
759
763
767
780
780
794
797
807
803
811
812
828
825
823
853
873
889
954
936
938
935
921
902
894
891
883
890
897
911
902
886
860
848
838
847
844
852
848
844
838
837
841
840
839
842
849
847
846
843
846
841
856
843
850
852
874
883
906
917
921
937
926
923
913
905
898
893
888
882
865
849
830
827
822
834
831
830
829
827
823
821
827
821
835
837
848
842
850
849
852
852
858
851
853
847
849
844
849
851
856
863
853
849
838
856
849
864
859
882
896
888
884
880
886
902
887
906
884
873
866
856
850
853
859
861
866
855
860
854
862
861
867
866
876
872
878
873
883
878
878
877
870
877
874
864
882
904
893
896
889
903
949
993
981
1003
983
1007
970
960
928
900
882
866
858
855
862
856
863
858
864
858
865
862
874
870
880
874
872
873
874
871
870
871
868
876
872
878
877
879
878
878
877
881
880
888
882
891
886
890
889
884
883
881
880
877
881
877
884
879
889
884
887
881
886
884
894
891
897
891
889
878
871
874
869
878
874
891
896
913
914
921
915
923
922
931
912
899
895
898
899
902
900
892
886
876
876
869
877
873
871
871
879
870
879
872
885
887
892
888
887
886
883
888
884
893
895
908
911
931
921
928
932
932
942
945
921
924
913
913
897
893
884
888
885
884
881
876
881
879
886
881
883
874
889
884
894
882
891
886
893
889
893
891
887
887
883
886
877
881
879
885
880
881
874
876
871
880
878
889
890
887
879
881
876
873
873
872
872
871
875
868
875
870
877
869
879
872
881
876
881
876
881
874
883
879
877
883
878
874
871
878
875
878
874
884
870
883
886
901
889
900
900
899
895
888
885
885
871
870
880
887
892
891
890
885
884
881
884
887
1023
1023
1023
1023
1023
1023
1023
1023
1023
1023
1023
1023
1023
1023
1023
1023
1023
1023
1023
1023
1023
1023
1023
1023
1023
1023
1023
1023
1023
1023
1023
1023
1023
1023
1023
1023
1023
1023
1023
1023
1023
1023
1023
1023
1023
1023
1023
1023
1023
1023
1023
1023
1023
1023
977
945
929
924
913
909
906
913
961
1006
1023
1023
1023
1023
1023
1023
1023
1023
1023
1023
1023
1023
1023
1023
1023
1023
1023
1023
1023
1023
1023
1023
1023
1023
1023
1023
1023
1023
1023
1023
1023
1023
1023
1023
1023
1023
1023
1023
1023
1023
1023
1023
1023
1023
1023
1023
1023
1023
1023
1023
1023
1023
1000
975
953
935
935
941
947
961
969
980
983
984
975
976
965
959
944
936
925
925
918
922
912
907
906
900
896
892
895
895
892
888
896
894
900
902
911
906
904
895
887
877
874
860
856
851
841
836
826
823
815
820
813
822
822
826
819
820
809
810
801
798
790
795
785
789
786
790
790
792
798
799
803
797
804
811
815
807
811
807
811
802
804
801
810
809
811
802
809
809
805
801
798
803
799
800
791
798
790
795
782
791
786
789
788
796
791
794
787
791
787
786
787
788
793
785
789
782
783
784
797
794
802
802
806
804
810
805
806
804
808
804
805
804
802
807
796
793
778
780
771
786
785
793
790
798
794
800
795
799
794
796
792
796
791
797
805
799
805
799
806
797
806
809
809
802
806
800
802
794
798
792
796
791
797
791
798
798
794
795
786
792
786
797
786
793
788
795
790
796
791
795
795
800
792
799
791
795
793
795
797
793
799
794
803
803
809
806
814
807
812
803
809
798
806
806
811
804
809
807
810
804
808
809
798
802
798
799
794
799
794
794
788
796
792
796
786
792
786
790
783
785
780
785
782
785
786
782
789
776
786
784
791
786
790
788
795
793
800
794
804
800
805
804
809
807
808
815
810
812
805
812
805
813
807
815
808
810
804
813
814
833
837
842
867
877
904
922
918
885
860
848
842
826
826
822
827
816
808
791
784
774
775
763
769
756
766
755
757
759
760
758
755
754
748
750
744
748
743
750
744
749
745
746
738
750
737
744
743
746
742
745
746
742
742
735
742
740
742
742
746
736
742
738
736
727
742
733
741
734
735
729
731
727
730
732
728
731
725
732
726
731
727
731
726
736
728
735
735
742
736
740
731
734
730
734
728
723
724
720
731
729
741
735
744
737
742
735
740
736
746
741
744
737
739
735
737
733
735
739
733
735
728
736
727
735
729
733
726
729
726
732
725
733
721
722
707
678
662
673
686
696
705
704
716
714
721
720
723
719
720
721
728
717
724
723
726
722
729
724
726
721
724
722
724
723
720
725
720
726
724
732
729
728
729
731
724
730
725
732
725
726
723
730
730
731
733
731
731
727
732
731
736
732
739
733
735
732
741
735
741
735
746
742
742
739
738
739
735
738
732
734
732
735
730
737
731
732
732
736
728
736
728
735
724
727
727
730
729
732
734
725
730
725
733
723
729
723
729
722
727
723
730
730
736
728
737
731
731
731
734
734
731
735
730
735
731
737
738
747
736
742
728
732
719
721
712
720
712
708
702
700
696
699
702
696
696
684
688
689
692
687
695
687
688
681
683
683
698
711
749
771
797
806
826
837
841
850
853
863
874
895
904
917
922
941
959
990
1001
1023
1023
1023
1023
1013
997
993
983
968
960
943
937
921
916
904
905
898
903
908
914
904
908
900
903
895
903
900
902
900
905
911
911
919
912
914
901
897
883
882
862
864
855
862
862
875
877
888
902
919
925
939
938
937
941
944
963
961
976
974
981
981
988
977
982
981
990
991
1004
996
1003
996
1006
1005
1017
1017
1016
1021
1012
1023
1023
1023
1023
1023
1023
1023
1023
1023
1023
1023
1023
1023
1023
1023
1023
1023
1023
1023
1023
1023
1023
1023
1023
1023
1023
1023
1023
1023
1023
1023
1023
1023
1023
1023
1023
1023
1023
1023
1023
1023
1023
1023
1023
1023
1023
1023
1023
1023
1023
1023
1023
1023
1023
1023
1023
1023
1023
1023
1023
1023
1023
1023
1023
1023
1023
1023
1023
1023
1023
1023
1023
1023
1023
1023
1023
1023
1023
1023
1023
1023
1023
1023
1023
1023
1002
991
965
965
957
966
965
975
972
982
984
989
993
990
993
988
997
998
1004
1002
1008
1014
1023
1023
1023
1023
1023
1023
1023
1023
1023
1023
1023
1023
1023
1023
1023
1023
1023
1023
1023
1023
1023
1023
1023
1023
1023
1023
1023
1023
1023
1023
1023
1023
1023
1023
1023
1023
1023
1023
1023
1023
1023
1023
1023
1023
1023
1023
1023
1023
1023
1023
1023
1023
1023
1023
1023
1023
1023
1023
1023
1023
1023
1023
1023
1023
1023
1023
1023
1023
1023
1023
1023
1023
1023
1023
1023
1023
1023
1023
1023
1023
1023
1023
1023
1023
1023
1023
1023
1023
1023
1023
1023
1023
1023
1023
1023
1023
1023
1023
1023
1023
1023
1023
1023
1023
1023
1023
1023
1023
1023
1023
1023
1023
1023
1023
1023
1023
1023
1023
1023
1023
1023
1023
1023
1023
1023
1023
1023
1023
1023
1023
1023
1023
1023
1023
1023
1023
1023
1023
1023
1023
1023
1023
1023
1023
1023
1023
1023
1023
1023
1023
1023
1023
1023
1023
1023
1023
1023
1023
1023
1023
1023
1023
1023
1023
1023
1023
1023
1023
1023
1023
1023
1023
1023
1023
1023
1023
1023
1023
1023
1023
1023
1023
1023
1023
1023
1023
1023
1023
1023
1023
1023
1023
1023
1023
1023
1023
1023
1023
1023
1023
1023
1023
1023
1023
1023
1023
1023
1023
1023
1023
1023
1023
1023
1023
1023
1023
1023
1023
1023
1023
1023
1023
1023
1023
1023
1023
1023
1023
1023
1023
1023
1023
1023
1023
1023
1023
1023
1023
1023
1023
1023
1023
1023
1023
1023
1023
1023
1023
1023
1023
1023
1023
1023
1023
1023
1023
1023
1023
1023
1023
1023
1023
1023
1023
1023
1023
1023
1023
1023
1023
1023
1023
1023
1023
1023
1023
1023
1023
1023
1023
1023
1023
1023
1023
1023
1023
1023
1023
1023
1023
1023
1023
1023
1023
1023
1023
1023
1023
1023
1023
1023
1023
1023
1023
1023
1023
1023
1023
1023
1023
1023
1023
1023
1023
1023
1023
1023
1023
1023
1023
1023
1023
1023
1023
1023
1023
1023
1023
1023
1023
1023
1023
1023
1023
1023
1023
1023
1023
1023
1023
1023
1023
1023
1023
1023
1023
1023
1023
1023
1023
1023
1023
1023
1023
1023
1023
1023
1023
1023
1023
1023
1023
1023
1023
1023
1023
1023
1023
1023
1023
1023
1023
1023
1023
1023
1023
1023
1023
1023
1023
1023
1023
1023
1023
1023
1023
1023
1023
1023
1023
1023
1023
1023
1023
1023
1023
1023
1023
1023
1023
1023
1023
1023
1023
1023
1023
1023
1023
1023
1023
1023
1023
1023
1023
1023
1023
1023
1023
1023
1023
1023
1023
1023
1023
1023
1023
1023
1023
1023
1023
1023
1023
1023
1023
1023
1023
1023
1023
1023
1023
1023
1023
1023
1023
1023
1023
1023
1023
1023
1023
1023
1023
1023
1023
1023
1023
1023
1023
1023
1023
1023
1023
1023
1023
1023
1023
1023
1023
1023
1023
1023
1023
1023
1023
1023
1023
1023
1023
1023
1023
1023
1023
1023
1023
1023
1023
1023
1023
1023
1023
1023
1023
1023
1023
1023
1023
1023
1023
1023
1023
1023
1023
1023
1023
1023
1023
1023
1023
1023
1023
1023
1023
1023
1023
1023
1023
1023
1023
1023
1023
1023
1023
1023
1023
1023
1023
1023
1023
1023
1023
1023
1023
1023
1023
1023
1023
1023
1023
1023
1023
1023
1023
1023
1023
1023
1023
1023
1023
1023
1023
1023
1023
1023
1023
1023
1023
1023
1023
1023
1023
1023
1023
1023
1023
1023
1023
1023
1023
1023
1023
1023
1023
1023
1023
1023
1023
1023
1023
1023
1023
1023
1023
1023
1023
1023
1023
1023
1023
1018
1012
994
983
973
950
941
926
922
911
926
929
962
984
1023
1023
1023
1023
1023
1023
1023
1023
1023
1023
1023
1023
1023
1023
1023
1023
1023
1023
1023
1023
1023
1023
1023
1023
1023
1023
1023
1023
1023
1023
1023
1023
1023
1023
1023
1023
1023
1023
1023
1023
1023
1023
1023
1023
1023
1023
1023
1023
1023
1023
1023
1023
1023
1023
1023
1023
1023
1023
1023
1023
1023
1023
1023
1023
1023
1023
1023
1023
1023
1023
1023
1023
1023
1023
1023
1023
1023
1023
1023
1023
1023
1023
1023
1023
1023
1023
1023
1023
1023
1023
1023
1023
1023
1023
1023
1023
1023
1023
1023
1023
1023
1023
1023
1023
1023
1023
1023
1023
1023
1023
1023
1023
1023
1023
1023
1023
1023
1023
1023
1023
1023
1023
1023
1023
1023
1023
1023
1023
1023
1023
1023
1023
1023
1023
1023
1023
1023
1023
1023
1023
1023
1023
1023
1023
1023
1023
1023
1023
1023
1023
1023
1012
1015
998
1006
987
996
986
992
974
983
964
973
964
966
960
957
960
953
967
965
974
964
972
964
976
960
969
959
975
966
977
963
970
964
965
964
961
970
961
967
961
971
966
977
967
976
975
979
969
982
970
982
977
988
980
990
986
978
982
972
980
966
976
968
981
964
974
964
970
960
972
958
972
965
971
959
970
968
963
966
959
964
957
967
962
972
960
971
956
964
961
975
963
974
956
967
964
968
966
963
969
955
966
963
977
970
991
976
958
930
931
943
943
924
923
906
901
884
878
868
869
855
834
838
838
856
851
847
823
811
794
799
793
815
816
830
825
829
827
833
830
828
826
825
833
825
831
835
842
833
844
833
846
841
850
840
850
845
850
846
854
848
844
846
839
845
837
848
848
856
846
855
845
851
846
857
845
853
850
857
847
857
856
857
859
850
921
923
920
919
926
905
902
885
874
852
845
833
844
846
848
850
847
833
826
828
827
846
840
851
848
856
846
856
848
859
851
864
855
868
870
881
875
884
885
890
894
886
892
884
897
894
903
897
907
901
907
901
915
904
911
899
912
907
917
914
909
914
902
903
898
907
902
912
901
904
893
894
885
898
885
898
885
886
877
879
880
877
882
880
885
872
881
878
886
875
882
871
880
869
881
874
885
873
880
871
878
877
872
876
869
873
869
880
871
882
869
875
868
873
865
878
869
864
891
924
914
900
892
904
940
938
951
939
920
920
905
896
917
905
902
888
895
874
868
851
853
843
844
844
843
855
856
868
868
874
867
874
865
870
861
865
865
876
861
870
860
865
859
868
863
866
869
859
866
865
872
661
658
660
662
662
658
661
662
665
662
664
662
664
663
665
663
664
663
662
661
662
659
658
660
660
662
666
666
662
666
661
663
660
661
661
663
661
660
661
664
666
663
662
664
663
660
664
662
660
656
657
655
660
660
669
668
667
667
665
666
664
664
659
656
652
651
647
647
647
647
644
643
635
636
631
634
629
628
622
625
623
626
624
623
623
620
620
622
622
622
628
625
629
624
624
625
629
633
631
628
636
640
639
638
644
650
651
652
655
666
670
680
681
689
688
698
705
713
713
723
729
734
730
727
708
684
683
683
685
680
686
680
681
674
676
671
684
678
674
648
635
629
649
672
699
723
746
763
779
796
797
801
801
816
824
830
835
844
847
850
849
850
852
857
857
858
858
863
868
875
883
891
901
903
915
914
921
920
919
914
911
905
900
887
884
881
880
872
853
831
815
807
799
796
786
778
770
769
770
779
777
787
790
792
792
800
798
805
819
844
856
866
870
871
860
850
841
832
836
835
843
851
864
865
866
861
863
859
857
850
851
847
846
847
845
840
833
836
838
844
847
851
854
853
855
854
850
850
842
847
841
845
844
845
844
849
847
848
852
855
860
866
870
879
871
871
869
866
865
858
857
853
851
848
854
847
845
847
854
853
854
863
865
870
870
868
864
862
867
870
868
871
863
862
855
862
858
857
857
857
854
858
854
854
849
853
855
854
856
857
862
865
869
863
869
870
870
867
873
871
873
871
868
861
857
853
857
854
850
848
850
852
850
850
851
857
857
858
856
857
853
856
853
846
847
844
850
849
851
853
855
858
864
866
868
871
875
874
874
868
865
864
859
858
850
847
846
847
847
844
845
843
847
848
850
855
856
857
856
862
862
863
866
867
871
868
865
864
863
864
869
861
867
864
863
860
860
856
859
859
859
862
862
867
866
865
865
866
866
866
865
872
873
877
874
874
876
872
868
868
867
868
867
860
855
854
852
851
848
843
846
847
843
844
847
843
844
846
851
867
870
884
908
907
914
918
915
910
902
903
888
895
890
887
882
880
874
877
881
879
880
887
892
893
891
893
887
884
886
886
886
879
879
874
872
872
870
863
866
862
866
868
876
872
884
884
887
896
911
915
920
922
910
910
907
910
904
901
894
891
877
876
864
863
864
873
871
875
873
873
868
865
863
856
856
857
857
860
866
869
871
868
868
864
863
863
862
867
870
871
877
884
886
887
881
880
878
889
887
895
901
903
897
900
893
898
896
902
899
887
880
870
864
859
850
844
842
841
845
847
859
857
863
858
865
861
861
860
863
854
857
851
851
851
849
849
847
848
841
848
847
854
854
856
857
858
854
860
855
869
876
883
887
890
891
891
889
886
879
876
878
871
886
887
891
892
892
892
890
892
901
899
907
901
902
891
884
871
860
852
846
845
845
846
842
838
837
838
831
835
835
843
840
843
840
839
840
842
842
835
831
834
834
836
844
845
849
849
864
870
867
867
876
878
883
888
883
887
886
886
890
891
892
888
885
888
876
871
860
854
842
845
838
844
841
838
843
843
844
843
840
832
835
825
827
828
833
833
835
837
836
829
827
830
836
832
836
840
845
845
844
845
840
844
844
847
849
855
858
866
867
878
878
885
881
887
880
887
882
886
885
883
879
866
862
856
853
847
850
838
840
833
842
831
833
830
828
831
834
826
827
826
822
821
819
820
820
822
831
837
834
842
847
849
844
857
859
857
857
857
860
861
866
864
861
858
858
862
863
863
867
865
869
864
863
853
849
846
846
843
843
837
833
833
833
835
829
829
829
830
835
838
834
838
835
832
829
834
832
833
835
832
829
834
833
834
828
823
829
836
844
850
858
851
855
854
861
859
866
862
872
872
878
873
872
871
865
856
848
839
835
834
834
829
826
821
827
830
829
835
840
848
841
840
842
846
848
848
842
839
833
841
846
849
860
865
867
869
880
880
887
887
881
876
872
874
871
866
857
849
843
836
833
833
827
831
825
830
831
837
838
844
841
844
835
842
840
837
839
833
832
828
829
831
826
825
821
827
835
851
858
863
866
870
869
874
878
883
888
884
884
883
874
883
882
882
872
868
860
857
851
846
840
835
831
825
820
818
821
817
814
816
827
821
825
824
829
831
837
837
841
842
841
841
843
835
837
837
839
840
842
850
857
853
859
866
871
876
874
882
881
882
878
875
870
867
859
854
846
845
839
837
835
828
824
829
836
833
839
835
833
829
831
829
827
823
825
821
821
820
818
815
817
824
822
827
852
862
870
875
694
697
700
708
706
708
708
707
712
718
719
722
719
718
716
713
715
718
718
712
710
707
710
706
710
713
715
714
713
708
706
701
705
702
702
698
700
696
696
695
700
700
697
696
699
708
710
711
712
710
710
720
719
727
724
720
721
718
719
719
722
719
715
713
716
719
720
716
715
713
720
720
720
721
725
724
724
728
727
725
723
729
725
725
718
717
716
715
718
719
720
721
718
724
719
722
720
725
724
726
721
718
723
728
723
715
718
721
721
716
719
716
717
712
717
714
711
711
717
709
716
713
716
711
714
711
712
710
708
706
707
708
706
704
704
700
699
702
699
707
704
708
704
707
706
708
707
703
708
704
701
699
696
695
695
698
700
696
702
700
705
699
702
701
698
696
696
698
696
692
690
689
688
689
691
693
692
691
689
699
697
701
705
703
703
707
707
715
709
705
710
708
710
711
711
712
715
710
710
705
708
703
704
696
700
698
688
681
681
682
675
675
666
662
664
668
663
664
668
670
665
673
666
666
668
676
674
680
677
676
674
673
674
671
668
666
665
665
664
665
663
657
656
654
650
636
624
611
602
597
609
613
601
590
587
603
614
631
638
647
653
654
647
644
637
637
631
635
632
638
635
638
639
644
641
646
647
642
646
642
643
640
639
635
640
633
634
625
631
628
634
629
625
627
635
634
632
634
637
633
631
634
629
633
636
641
637
640
637
636
638
639
635
638
631
635
635
635
635
634
633
635
637
633
632
633
635
630
632
633
631
633
640
636
640
639
638
640
637
627
627
622
616
610
606
613
618
623
615
620
624
625
611
617
617
624
624
629
627
629
623
617
611
608
609
606
608
600
600
601
607
610
616
611
610
606
611
609
613
611
618
615
614
615
616
611
608
611
605
602
593
593
590
590
588
592
582
581
582
595
611
674
809
1023
1023
1023
1023
1023
1023
1023
1023
1023
1023
1023
1023
941
833
756
708
677
659
639
631
627
620
618
607
594
573
549
524
508
495
496
508
546
592
658
698
674
625
594
579
583
580
579
576
580
586
590
595
595
603
603
607
607
613
616
618
612
616
611
619
616
618
618
619
621
617
621
624
623
618
619
620
623
623
628
629
628
622
622
621
625
622
628
628
630
624
627
625
623
622
619
616
615
616
614
614
616
618
613
610
607
609
606
610
607
609
608
611
605
600
602
598
592
585
585
581
580
579
582
575
578
572
574
567
568
562
564
558
560
562
561
559
554
549
548
546
541
541
539
537
533
532
530
528
522
525
524
528
530
535
542
554
567
582
590
590
601
604
606
615
616
618
622
626
633
628
630
629
638
642
645
644
640
631
623
610
596
580
568
579
593
590
591
601
613
628
638
643
646
646
641
642
639
637
632
631
629
626
620
622
626
626
625
629
634
634
638
637
638
639
655
654
661
666
670
668
669
667
670
668
668
667
665
667
659
663
664
662
658
653
644
643
640
642
643
646
636
637
639
637
632
627
620
612
614
611
614
608
611
613
612
601
599
604
612
621
636
648
655
670
679
687
701
693
682
678
671
669
675
684
695
698
697
686
675
653
630
613
590
590
593
603
613
625
635
645
652
664
672
672
676
679
684
681
675
674
673
667
665
656
653
649
648
654
663
664
667
671
669
665
663
667
661
654
644
646
660
686
704
720
731
743
760
776
784
788
788
785
784
786
782
774
767
756
739
731
721
704
701
696
700
697
702
700
695
698
701
695
695
699
697
690
688
686
688
697
703
708
705
709
712
716
717
714
704
703
681
670
657
650
641
641
642
644
646
645
642
646
646
645
643
639
640
631
635
635
647
653
663
668
676
681
690
696
705
712
717
728
737
745
753
754
753
761
758
766
769
772
771
779
776
785
783
779
780
783
784
778
783
784
783
782
784
786
788
788
799
794
794
785
785
778
769
761
756
749
753
752
753
751
747
754
754
749
745
748
746
740
733
735
731
733
731
728
721
725
729
736
739
740
742
748
753
751
754
761
899
1023
1023
1023
1023
1023
1023
1023
1023
1023
1023
1023
1023
1023
1023
1023
1023
1023
1023
1023
1023
1023
1023
1023
1023
1023
1023
1023
1023
1023
1023
1023
1023
1023
1023
1023
1023
1023
1023
1023
1023
1023
1023
1023
1023
1023
1023
1023
1023
1023
1023
1023
1023
1023
1023
1023
1023
1023
1023
1023
1023
1023
1023
1023
1023
1023
1023
1023
1023
1023
1023
1023
1023
1023
1023
1023
1023
1023
1023
1023
1023
1023
1023
1023
1023
1023
1023
1023
1023
1023
1023
1023
1023
1023
1023
1023
1023
1023
1023
1023
1023
1023
1023
1023
1023
1023
1023
1023
1023
1023
1023
1023
1023
1023
1023
1023
1023
1023
1023
1023
1023
1023
1023
1023
1023
1023
1023
1023
1023
1023
1023
904
905
904
903
902
903
900
898
903
902
904
903
906
907
908
904
903
899
900
897
904
903
901
896
896
899
900
905
896
893
895
899
901
904
901
902
903
908
907
911
911
912
911
907
902
903
905
901
895
894
892
894
894
889
893
901
903
907
906
900
899
900
904
898
898
893
899
899
899
899
902
902
904
903
898
901
901
904
901
904
904
906
902
904
900
908
905
906
905
905
900
893
895
891
892
894
902
900
899
893
894
892
890
887
889
892
901
901
897
904
903
901
903
896
891
894
893
895
899
896
892
895
893
894
895
893
895
896
905
903
908
908
908
901
899
898
898
897
898
903
902
903
900
901
902
898
897
900
902
903
904
910
912
913
907
903
890
871
852
849
841
843
849
853
849
855
855
856
862
875
883
890
894
895
893
881
877
874
875
877
884
890
897
899
901
899
900
902
908
905
911
911
917
912
907
902
898
888
877
868
849
844
836
834
835
838
838
835
833
833
832
835
831
844
852
864
876
879
886
883
883
879
884
886
890
889
891
890
895
895
898
894
902
901
905
903
904
900
901
897
898
890
904
906
919
925
921
913
910
907
905
902
903
911
910
914
905
908
901
898
895
896
894
898
899
901
901
904
899
901
902
899
899
895
903
902
900
903
907
906
910
910
914
915
901
891
886
888
885
889
891
893
895
896
899
898
892
890
889
890
898
901
904
905
899
894
894
891
895
904
902
903
905
905
911
912
917
909
907
890
880
886
868
857
850
840
836
843
849
850
850
847
836
836
830
829
828
833
841
847
843
835
829
828
821
821
812
811
818
822
823
818
821
822
819
817
822
824
836
832
833
829
826
830
828
830
825
829
825
827
825
827
831
820
823
823
826
829
827
834
828
830
831
834
837
831
841
833
835
837
834
838
839
842
841
839
839
839
840
839
843
840
838
834
833
831
832
829
829
827
825
829
823
823
831
834
830
832
826
833
827
834
831
830
825
827
824
828
828
827
826
825
823
831
840
845
845
838
832
825
816
799
776
721
722
737
758
769
783
797
806
807
809
809
815
815
818
823
820
824
822
827
826
827
827
827
818
820
819
817
813
815
814
811
811
815
817
819
821
824
823
825
822
816
819
803
777
725
716
741
770
784
801
807
811
810
808
810
814
808
807
806
810
814
819
825
827
832
829
829
826
826
826
824
820
819
816
806
796
783
773
757
736
727
732
735
760
783
830
856
890
885
897
896
902
911
939
925
896
862
833
789
731
717
721
733
751
770
780
791
792
795
794
801
802
803
798
790
778
767
764
761
761
758
751
749
757
750
753
751
755
751
747
745
752
762
771
777
788
793
801
806
808
806
804
804
801
804
800
804
808
806
801
801
796
798
793
786
782
777
781
790
799
804
802
796
801
791
797
793
803
804
805
788
785
777
778
774
776
779
777
779
771
774
778
778
779
786
781
784
781
785
787
796
792
807
806
815
814
813
798
790
786
782
779
771
781
781
784
779
785
791
796
801
817
818
822
821
815
815
805
797
790
790
781
783
783
779
779
769
769
764
765
767
768
777
770
774
771
781
783
789
789
788
793
789
789
779
779
771
775
771
771
767
771
770
769
769
768
761
764
768
772
770
764
766
767
777
794
799
806
814
817
823
829
828
824
825
822
815
812
808
809
811
808
813
816
817
811
810
810
810
815
812
820
824
827
827
828
823
820
822
826
827
828
832
835
844
843
845
845
843
848
843
830
815
811
814
812
814
816
820
817
823
823
826
827
823
825
822
819
819
820
812
814
805
810
801
801
796
801
801
796
786
787
788
786
787
782
774
770
763
756
759
753
753
747
748
743
753
757
759
751
747
738
735
732
730
731
728
729
727
728
728
732
727
719
713
709
704
710
709
710
710
706
706
707
708
707
705
711
711
703
701
697
696
691
694
695
693
693
697
696
698
695
700
698
702
703
698
698
701
708
707
718
731
753
765
777
785
793
799
803
800
801
808
807
801
809
814
815
812
810
814
816
811
816
816
820
824
817
822
821
826
823
824
828
821
816
820
819
815
812
814
817
813
820
821
825
826
824
821
822
818
819
814
813
811
815
821
819
820
817
815
818
817
819
820
821
823
822
823
820
822
816
820
818
822
826
833
832
829
824
822
818
815
811
810
812
814
815
812
808
807
811
814
823
818
816
812
818
818
823
823
826
826
823
819
825
828
831
827
819
821
823
824
822
824
822
824
824
823
818
816
811
817
815
814
813
814
813
817
823
828
826
829
829
826
826
826
827
824
830
831
828
822
825
817
820
820
560
554
556
558
560
559
561
561
567
570
572
572
583
596
626
641
661
673
670
670
670
671
674
682
680
694
701
703
700
695
693
695
696
706
711
715
718
725
727
721
719
707
703
699
692
693
702
699
700
699
701
697
697
697
699
702
707
706
708
715
712
710
710
709
708
703
703
708
708
708
709
710
712
713
713
718
713
714
713
713
709
711
712
708
707
703
705
701
704
710
711
712
717
713
716
710
715
718
714
716
717
714
712
714
713
710
708
708
709
706
709
716
714
710
712
712
709
709
708
711
713
714
709
709
708
709
712
710
710
711
706
703
704
706
708
709
713
715
715
713
715
713
717
712
718
720
720
718
714
714
713
714
714
710
711
710
708
712
707
712
712
713
714
716
712
716
715
711
707
704
708
711
712
707
708
709
708
707
711
714
713
706
709
714
712
714
714
708
706
709
706
705
709
716
704
712
708
708
705
709
706
709
708
710
709
710
712
717
713
717
718
716
714
711
715
712
707
703
705
704
712
709
711
712
714
716
716
715
717
716
718
715
711
716
713
710
712
709
708
705
702
703
707
713
714
716
710
714
712
711
707
713
714
718
718
720
720
714
717
717
717
714
713
711
710
708
706
711
709
706
704
707
713
709
715
714
716
716
718
718
715
711
712
709
711
707
706
706
708
709
709
713
714
711
712
714
712
715
711
710
711
714
712
714
715
715
714
715
713
711
711
715
715
716
717
717
716
712
714
715
720
715
716
714
717
717
715
713
716
715
714
712
710
712
713
720
721
726
726
729
722
725
723
728
727
725
721
724
725
719
714
718
720
715
716
719
719
718
716
710
711
710
712
715
717
715
713
719
720
724
722
717
718
716
714
712
713
716
717
719
720
717
720
725
720
725
724
719
716
721
721
722
721
721
726
724
723
720
724
732
734
732
730
727
732
729
731
731
739
736
738
734
732
728
727
731
734
732
730
726
731
736
746
747
752
755
750
757
755
755
753
755
749
731
712
698
688
679
675
663
664
660
659
651
654
655
659
662
666
666
671
672
675
672
675
671
667
667
665
664
664
658
658
656
652
657
657
661
666
671
673
678
677
682
683
685
679
680
673
669
665
666
664
665
670
668
670
674
676
681
685
687
689
687
692
683
682
677
666
659
657
651
652
654
656
657
654
660
662
667
674
677
677
682
677
670
669
671
671
675
671
678
681
683
680
686
692
786
864
920
958
970
984
987
982
964
947
927
915
902
898
891
886
878
876
870
865
859
853
846
839
837
837
828
827
829
828
832
827
830
829
831
826
829
828
831
826
825
828
824
827
827
829
825
824
828
830
829
830
828
829
826
829
827
834
833
841
842
847
845
858
898
834
779
740
716
697
685
677
670
665
665
662
662
655
658
658
659
660
660
656
659
657
658
654
654
654
650
645
648
650
653
653
652
652
653
656
655
659
664
666
659
662
660
664
663
664
666
711
768
822
848
872
880
882
873
865
852
842
840
835
841
844
854
850
852
850
850
857
851
846
841
844
845
851
853
856
859
861
860
859
857
859
859
859
860
859
853
857
854
853
853
855
859
875
929
878
807
756
725
704
690
677
672
670
673
672
673
668
675
672
672
674
677
673
670
673
673
672
674
670
662
667
667
666
663
699
742
797
817
851
866
881
882
880
867
856
843
836
833
836
834
837
836
838
842
841
846
846
849
846
847
848
853
850
846
845
838
844
847
845
842
839
845
850
857
857
860
865
864
866
863
863
860
863
860
859
868
866
871
860
858
855
856
857
856
861
859
853
854
852
853
853
851
852
851
852
851
848
850
848
849
850
852
851
856
859
856
850
850
855
855
865
866
940
1017
988
953
932
914
911
914
936
997
1020
924
859
814
787
765
755
745
744
744
742
740
733
732
732
733
730
732
730
733
731
722
724
721
721
723
726
727
726
793
815
826
851
864
890
907
917
924
922
914
899
885
867
862
850
847
839
839
835
843
841
848
853
856
864
867
867
871
866
874
873
871
874
872
872
875
877
872
867
868
863
862
867
872
868
868
870
866
867
866
868
868
870
865
868
868
862
874
875
870
863
859
860
858
857
856
861
865
858
861
855
858
861
854
854
858
854
850
847
844
843
840
842
835
837
836
837
838
839
851
877
903
824
765
732
710
703
690
684
679
676
680
671
671
668
666
670
672
667
669
666
669
665
668
665
725
751
769
784
800
811
819
822
825
824
819
818
814
815
812
817
824
821
817
817
818
825
821
821
823
824
821
822
824
821
825
821
820
814
808
811
805
807
808
822
817
