128
127
127
128
129
127
128
127
129
127
130
129
129
126
128
126
126
124
124
123
124
123
124
124
126
126
127
127
124
124
121
120
120
122
121
121
119
119
117
118
118
121
118
120
118
117
116
117
116
118
118
120
122
123
121
122
123
123
122
123
124
124
124
124
125
125
127
124
125
123
124
122
122
120
121
120
122
121
121
121
123
121
121
120
121
121
123
122
122
121
121
122
121
124
124
125
122
122
118
117
115
116
115
117
116
118
117
118
119
122
120
122
120
121
120
122
122
124
122
123
123
121
121
119
120
119
121
120
121
119
119
118
118
117
120
116
118
117
117
116
119
118
121
122
122
121
124
125
125
124
123
124
122
123
122
122
121
122
120
120
119
118
118
117
115
116
114
116
113
116
117
117
115
114
112
113
114
114
114
115
116
118
118
116
117
115
116
114
114
113
114
112
114
111
112
111
112
113
114
113
115
114
115
113
115
115
116
117
117
117
117
117
118
118
115
117
114
114
113
114
113
113
111
113
112
113
112
111
111
113
112
113
115
117
116
117
118
118
118
116
118
119
121
120
121
119
117
115
118
120
121
119
120
117
116
115
118
118
112
111
113
113
114
115
114
114
113
113
118
119
116
116
114
113
112
113
113
113
112
113
112
113
111
112
111
114
113
113
111
112
112
113
114
115
117
117
117
117
116
115
115
115
116
114
115
114
115
113
114
111
111
111
114
111
111
111
112
110
113
112
114
112
112
113
114
112
112
113
112
113
111
111
110
111
110
109
106
107
105
108
108
108
109
109
108
107
106
107
105
105
104
106
105
109
110
111
110
109
107
106
108
107
108
105
107
106
106
104
105
103
106
105
106
106
108
106
107
107
108
105
106
105
108
107
107
107
107
107
107
108
107
109
107
107
106
106
106
108
106
106
103
108
111
112
110
110
109
109
109
110
110
110
106
107
107
107
108
107
109
109
109
108
110
109
110
109
109
107
109
107
108
107
107
107
109
108
111
111
111
109
111
111
110
109
110
110
110
107
106
107
105
106
105
106
104
107
106
106
105
106
105
106
105
106
106
106
106
107
107
106
106
107
109
108
109
107
106
105
108
110
113
112
113
111
112
109
111
108
107
105
106
105
107
104
106
105
105
101
105
104
105
108
108
107
107
109
108
109
107
107
106
107
106
107
106
106
103
105
103
105
104
104
104
106
103
106
106
107
107
107
108
109
109
110
111
110
111
111
112
110
109
107
109
107
108
106
108
107
108
106
108
104
105
103
106
104
105
106
108
107
108
108
111
113
113
114
113
113
112
113
109
110
108
109
107
106
102
104
103
105
103
103
102
104
102
104
103
105
105
105
105
105
106
106
107
107
107
106
107
105
106
104
105
104
105
104
103
101
103
102
103
101
104
104
106
105
106
108
108
108
107
107
106
107
105
106
105
106
105
107
106
106
106
107
105
105
104
105
105
103
103
106
105
104
101
103
103
103
104
105
105
105
104
105
104
102
103
102
105
106
107
106
107
106
107
105
104
100
103
101
104
102
104
105
107
107
109
108
107
106
104
105
105
105
105
107
105
107
105
106
105
106
105
105
102
102
100
102
102
105
103
105
103
104
103
104
103
103
102
104
105
104
103
103
103
103
104
105
105
104
107
105
105
103
105
107
109
106
110
111
109
106
108
108
108
108
112
112
115
116
116
117
113
112
110
111
111
115
115
119
119
122
118
119
118
122
120
119
117
120
122
132
137
141
141
142
145
151
153
156
161
161
163
162
161
163
166
166
167
168
171
176
179
181
181
180
183
181
187
185
194
191
188
180
183
182
181
179
179
181
183
187
182
181
176
176
178
186
202
216
212
197
179
170
169
175
174
173
174
163
167
176
177
173
195
204
198
191
196
207
208
205
197
190
192
190
190
189
186
182
184
181
179
171
178
172
172
174
172
179
170
161
167
163
170
173
174
176
171
168
168
168
161
161
164
166
166
165
161
164
159
158
156
158
160
159
153
147
145
145
140
134
136
138
136
145
144
154
152
156
157
169
176
171
172
166
162
162
166
173
173
172
172
171
168
173
177
180
175
171
165
161
167
164
164
163
164
168
164
159
164
167
164
164
163
167
167
171
171
178
174
177
170
167
162
162
161
164
167
168
165
162
171
174
166
168
162
156
153
154
157
159
162
159
161
165
167
169
173
180
182
182
186
186
180
172
167
168
165
162
160
166
156
153
153
156
157
156
160
149
153
158
158
160
158
158
158
163
166
167
165
166
168
167
164
167
160
161
162
167
164
163
170
169
178
174
173
173
175
168
165
163
163
169
172
168
173
165
164
162
162
157
168
171
170
172
169
165
158
151
151
150
148
153
153
154
154
157
156
151
154
158
158
160
158
163
162
164
174
175
173
170
166
168
160
155
156
154
156
156
158
159
175
174
180
180
176
181
180
176
173
174
175
170
170
166
165
168
160
158
162
156
151
146
149
155
155
158
159
156
157
157
154
157
162
158
172
172
167
167
162
164
166
161
160
162
157
159
160
163
160
158
158
155
154
152
156
153
149
154
156
157
161
154
160
163
168
170
170
170
173
168
168
166
170
169
164
164
163
162
165
164
165
165
169
166
170
166
164
156
161
173
165
164
166
171
170
170
167
168
169
164
164
163
161
163
158
157
154
153
156
160
156
163
168
165
166
163
166
163
165
164
165
168
161
163
169
171
172
174
178
179
180
174
171
165
168
178
176
174
173
165
171
162
158
157
160
163
166
166
160
162
159
162
167
168
161
163
160
158
152
153
154
159
162
165
163
165
166
173
175
172
170
174
181
180
184
182
189
190
191
187
184
184
184
176
178
176
174
172
173
173
169
161
163
161
164
166
166
162
160
160
166
163
172
163
169
163
161
162
168
170
164
165
166
163
163
165
165
172
173
174
170
168
168
169
166
166
164
164
170
170
167
166
166
172
171
168
177
185
185
179
175
171
166
177
177
173
176
170
168
162
162
161
158
155
158
152
155
158
162
161
157
153
150
149
147
144
142
141
151
158
169
167
164
160
159
167
167
164
160
154
152
154
150
153
153
155
150
161
165
167
162
166
154
160
161
162
162
167
170
171
171
167
170
168
171
169
173
172
176
172
173
170
170
170
176
181
178
182
182
175
176
176
176
177
182
179
176
173
175
169
173
175
168
168
167
164
162
160
159
152
144
143
139
137
132
130
131
133
134
132
132
134
132
131
129
130
129
130
130
129
128
126
128
126
124
121
119
118
120
118
122
121
123
122
122
119
121
119
117
114
115
112
113
113
114
112
111
112
117
120
118
118
118
119
116
115
113
113
113
114
114
114
114
114
111
113
111
114
111
113
111
109
109
109
108
111
110
110
108
107
109
110
112
111
115
120
121
119
120
119
120
117
118
115
117
118
118
115
116
110
114
111
113
111
112
114
113
110
110
112
112
113
112
112
113
114
112
113
111
114
113
115
114
114
111
114
111
109
108
109
109
109
108
110
109
109
112
116
118
118
118
115
117
116
116
113
112
110
110
108
109
105
104
105
107
105
108
107
111
106
109
108
108
109
111
113
115
114
113
115
115
115
113
113
114
116
115
115
114
115
110
108
108
111
109
110
108
112
109
112
112
113
113
114
112
113
113
113
114
113
115
115
116
113
112
110
112
109
107
106
105
103
106
108
106
106
110
109
112
110
114
114
117
112
112
110
110
111
109
107
106
108
109
111
110
111
109
107
105
107
106
105
105
108
107
109
106
106
103
104
104
108
109
109
109
109
112
112
115
115
114
112
111
110
111
109
113
114
115
112
112
108
111
110
113
111
111
111
112
111
115
116
116
116
120
119
119
118
114
113
111
112
111
112
110
114
116
114
111
112
109
110
109
109
108
108
108
111
110
111
109
110
112
111
113
113
114
115
114
111
110
109
110
110
111
109
110
106
102
100
103
103
106
107
106
105
106
105
107
106
106
106
107
107
108
108
109
109
110
110
109
111
109
111
110
110
108
107
105
106
105
106
104
106
108
108
107
107
107
105
106
108
107
106
108
108
105
105
106
104
105
105
106
103
101
101
103
102
104
103
103
102
104
102
104
103
104
105
105
105
107
110
110
110
110
110
109
108
106
107
105
107
106
105
103
104
101
103
100
103
101
105
103
104
103
104
101
104
103
104
101
106
103
104
107
110
109
108
108
105
106
105
105
104
105
102
103
101
102
100
102
101
104
103
104
99
100
99
100
97
102
101
104
103
102
103
105
104
102
102
101
101
100
102
103
104
102
104
102
101
99
102
101
104
103
104
103
104
100
101
100
102
102
102
103
102
99
100
100
100
103
105
107
105
106
105
107
105
103
101
101
98
98
97
101
98
100
97
104
103
103
103
108
106
106
106
104
103
104
104
104
105
103
102
100
101
98
100
97
96
95
97
98
98
97
96
95
96
95
97
98
101
98
101
101
105
107
108
111
110
109
109
109
107
106
104
103
100
99
97
102
101
103
102
103
101
103
103
105
102
103
100
99
99
101
101
104
104
104
104
102
102
101
99
99
100
100
101
100
98
97
99
98
99
99
103
101
102
100
104
103
105
107
109
107
107
105
102
103
103
104
103
104
103
102
101
102
100
103
104
105
103
105
103
106
111
111
111
112
108
109
108
109
108
109
108
109
108
107
104
105
105
104
106
109
109
107
108
107
107
105
106
104
106
103
103
102
103
102
102
102
104
102
105
104
105
103
102
102
104
105
105
106
104
104
102
101
99
100
98
99
99
102
99
100
98
98
96
97
96
98
94
96
94
96
95
96
96
98
97
99
100
99
97
96
98
98
99
99
101
102
105
104
104
101
100
99
101
98
99
97
100
100
102
99
100
102
101
101
105
104
107
107
106
107
107
109
112
111
110
111
109
108
106
106
104
105
103
104
103
107
104
104
104
105
104
104
104
105
104
103
105
106
105
104
104
104
107
106
106
105
104
104
108
108
110
108
109
106
108
105
104
104
104
105
106
104
105
105
105
105
107
106
106
105
108
107
105
106
104
104
102
100
98
98
96
97
96
98
96
96
95
97
93
97
95
101
99
101
99
99
97
98
98
100
101
100
101
100
101
100
100
99
101
103
103
101
99
96
95
93
93
93
93
93
94
91
95
93
97
97
98
96
98
98
99
98
98
98
100
101
104
104
104
105
101
101
99
99
98
101
100
100
97
97
94
91
90
94
92
95
93
95
92
94
95
100
101
103
103
103
104
103
104
102
101
98
98
99
101
100
101
97
97
95
96
94
96
96
99
96
98
97
99
100
104
102
102
102
101
100
102
101
101
103
102
102
101
103
101
102
100
100
98
99
102
104
101
101
98
98
98
101
98
101
101
102
102
104
103
103
104
103
104
105
106
104
104
105
107
104
103
100
103
103
104
104
104
101
101
99
100
101
102
103
105
104
104
102
101
102
100
99
99
101
103
105
103
101
99
101
100
100
98
98
96
96
94
95
96
98
97
97
97
98
95
95
95
96
95
96
95
97
98
101
103
106
106
106
103
102
104
103
103
102
103
102
103
102
103
100
99
96
96
94
96
95
99
98
100
98
99
99
100
100
101
100
104
105
106
107
106
108
105
105
103
103
100
100
98
100
97
98
98
99
98
100
98
101
101
104
103
105
101
102
102
102
100
98
97
97
97
97
98
97
99
99
101
103
104
102
102
100
101
99
100
97
97
95
96
98
100
98
102
101
101
99
98
97
99
97
100
102
101
100
100
101
102
104
102
104
104
104
102
102
99
98
96
97
97
101
101
101
100
104
102
106
105
106
103
104
104
104
104
104
105
104
103
102
100
100
100
99
100
100
101
99
99
98
99
98
99
97
98
101
106
103
105
103
103
102
102
101
104
104
103
101
101
102
101
100
97
100
98
99
97
96
94
97
95
97
98
98
96
97
97
96
96
98
96
98
100
102
101
101
100
104
104
102
100
104
105
101
101
100
101
100
101
99
101
103
104
102
104
103
105
100
102
100
102
99
101
99
99
96
96
96
97
97
100
102
104
104
104
106
104
104
103
104
102
103
101
102
99
100
98
98
99
101
98
98
97
98
96
95
95
97
95
95
96
100
99
97
99
99
96
95
96
94
93
93
94
93
95
94
95
93
95
93
94
95
97
96
103
101
101
98
98
97
98
98
100
101
104
103
102
102
101
101
99
100
98
98
96
96
94
93
94
95
93
93
92
95
95
95
94
95
93
91
91
99
97
98
96
95
95
95
94
96
95
94
96
98
99
98
99
98
98
97
98
96
98
97
98
96
98
95
98
96
99
98
99
98
98
95
95
94
96
96
96
97
96
95
95
97
98
96
94
94
95
97
99
101
99
100
99
99
97
96
94
96
94
95
94
94
93
93
92
94
91
93
93
96
96
97
98
97
99
97
96
95
95
93
93
91
93
92
92
92
94
93
95
96
99
97
98
98
100
99
100
99
100
96
96
96
98
98
102
100
98
98
99
100
101
104
103
104
102
102
100
100
98
99
99
102
99
100
99
102
104
110
109
108
107
108
107
109
109
112
110
111
114
114
115
115
119
123
120
117
117
118
120
117
121
122
126
126
130
135
138
135
141
144
145
143
147
147
151
147
147
148
156
158
157
155
158
162
164
169
175
179
178
177
180
183
182
188
181
182
180
185
185
184
177
177
177
181
180
176
178
179
178
177
173
164
155
157
158
153
155
152
153
154
158
154
156
156
160
154
152
150
157
161
160
160
161
158
158
159
163
161
160
166
168
164
160
159
159
164
168
166
165
166
161
161
165
168
167
174
178
174
167
157
153
153
152
150
147
150
151
148
154
153
150
149
153
149
152
153
157
157
159
156
156
151
152
152
155
153
155
154
153
148
149
147
149
146
150
155
156
156
157
161
161
167
163
161
158
158
154
154
153
153
153
160
160
158
157
157
154
155
155
155
148
146
148
149
150
145
150
150
154
152
143
146
148
149
151
148
145
141
143
142
143
142
147
147
149
151
151
148
151
155
158
161
160
158
157
159
156
154
158
158
164
164
163
163
166
168
165
169
173
173
175
174
169
166
161
159
157
161
159
157
156
161
160
164
170
167
161
169
169
171
173
176
179
181
182
180
178
180
181
177
176
175
178
180
180
174
167
166
158
151
149
144
144
141
139
134
135
129
130
134
131
132
132
135
139
136
131
129
125
127
121
119
118
120
117
116
112
113
112
116
128
127
121
122
118
121
117
117
112
108
109
108
103
104
104
106
107
106
108
106
105
104
108
108
108
106
108
107
108
108
111
111
110
109
106
103
105
97
104
105
105
106
108
107
106
107
108
111
110
112
115
115
112
115
112
113
110
111
112
114
112
109
110
109
105
109
112
110
108
109
107
106
106
107
111
108
109
107
108
108
107
106
107
107
106
104
106
105
106
103
105
102
105
106
109
109
116
112
109
110
111
110
111
109
107
105
110
113
113
113
110
111
109
109
106
107
105
109
108
108
104
106
101
102
102
101
100
103
103
104
102
108
106
104
106
107
108
110
112
114
114
112
115
118
119
117
117
112
112
115
119
115
116
113
109
108
111
107
107
108
109
108
108
106
106
104
105
107
108
109
107
109
108
110
110
113
109
109
107
109
108
110
111
111
107
110
111
110
107
109
109
109
108
107
109
109
107
105
109
107
107
107
110
108
105
103
100
99
101
102
105
104
108
106
107
103
105
103
104
105
107
107
109
108
107
108
107
110
111
112
109
106
104
105
105
107
105
106
105
109
108
110
109
110
108
108
103
104
104
108
107
106
107
110
111
117
116
116
117
114
110
106
106
105
104
102
106
108
109
107
110
109
111
108
109
106
109
106
110
111
111
106
108
108
104
101
101
103
103
104
107
108
106
105
103
104
104
105
106
107
104
106
104
105
100
101
101
102
102
100
100
103
99
102
100
105
103
108
107
107
111
109
110
109
110
108
109
107
108
105
108
108
109
106
104
100
101
96
99
98
102
101
102
99
105
101
102
102
102
104
104
105
105
106
107
110
109
112
109
109
106
107
106
105
103
106
106
112
111
113
108
109
108
106
108
107
103
108
109
108
108
109
108
106
106
103
104
103
105
103
105
103
104
105
106
104
103
100
105
103
106
102
103
99
102
102
102
102
105
103
103
104
106
106
107
110
110
111
108
109
108
110
107
108
111
112
110
110
110
111
109
111
110
105
104
107
107
106
106
104
103
103
105
103
103
100
100
100
101
99
99
97
99
99
101
99
102
99
102
102
106
108
107
107
106
104
107
105
105
104
102
107
108
106
107
107
104
106
106
110
107
108
106
107
105
105
101
103
100
100
102
101
98
100
100
101
100
101
104
105
105
110
109
108
108
109
108
108
109
105
105
105
106
105
104
103
106
106
109
109
108
107
108
108
106
104
104
102
103
104
105
106
107
105
103
102
103
104
104
105
104
105
103
103
102
104
101
102
99
101
96
99
105
104
102
102
101
103
102
99
99
101
101
97
97
99
98
99
100
100
103
105
108
107
108
106
108
106
106
103
107
104
106
105
105
99
97
96
98
99
99
92
96
96
100
99
99
98
101
100
99
95
97
99
98
99
100
100
98
97
96
98
97
99
96
99
99
102
100
102
98
102
98
98
102
101
99
97
95
99
99
100
100
100
102
102
103
104
107
107
109
106
108
104
105
104
103
99
100
97
98
97
97
97
97
97
101
104
104
101
102
101
101
104
105
107
106
108
107
106
105
105
103
104
102
105
103
105
103
106
103
103
104
104
103
104
102
105
104
103
105
107
106
105
103
101
100
101
102
101
102
99
100
97
98
98
98
97
100
100
100
98
97
97
97
96
98
96
99
100
100
99
98
98
99
99
100
100
104
105
105
108
110
111
108
108
105
102
99
101
96
94
95
100
99
101
99
100
97
102
102
106
108
109
108
108
109
106
107
107
107
105
105
103
104
103
104
101
103
100
103
101
105
103
104
104
103
98
100
100
104
106
110
108
108
106
109
106
105
106
102
101
103
105
105
104
101
100
98
99
97
100
100
103
103
103
102
105
106
107
111
109
106
105
100
103
103
106
106
107
108
112
112
110
111
111
109
105
107
107
110
109
108
107
108
106
107
105
104
103
101
102
101
100
99
96
96
95
96
94
92
91
91
93
98
99
98
102
102
102
100
99
98
98
96
98
98
100
99
100
97
99
98
99
100
101
99
101
105
103
105
104
102
99
98
97
102
103
102
101
103
101
103
101
102
100
97
94
95
93
96
98
99
99
99
98
98
98
100
99
98
100
102
102
106
107
106
106
107
107
105
106
103
102
100
100
97
96
94
96
97
97
96
98
97
102
105
109
105
105
105
103
105
105
103
103
102
102
105
104
105
106
105
101
101
99
101
100
100
97
97
94
96
96
99
100
101
97
100
95
97
96
99
103
107
105
104
103
102
103
100
101
99
99
100
102
101
102
99
100
98
103
105
105
102
102
101
103
104
104
102
101
103
103
102
99
98
96
97
96
96
96
93
96
97
96
98
97
98
97
100
97
98
97
98
98
99
98
99
96
100
97
102
96
99
95
97
95
96
99
100
100
97
99
102
106
106
106
104
100
98
100
101
103
103
103
99
99
97
98
97
101
97
99
98
99
96
96
99
101
102
106
104
102
100
103
102
106
106
104
103
102
103
101
103
104
108
105
103
101
101
98
100
103
106
103
107
109
110
107
107
108
108
106
104
105
104
101
102
100
101
102
100
103
102
104
102
101
99
99
96
96
94
97
98
100
100
103
100
101
96
98
96
98
96
96
96
100
101
105
102
103
102
103
105
103
104
103
103
102
103
102
100
97
99
100
103
101
100
101
99
97
98
100
103
98
99
95
101
105
105
102
103
101
100
101
101
101
102
104
103
102
100
103
106
106
101
102
99
103
106
106
102
105
107
106
104
105
105
104
102
104
104
102
101
99
97
96
97
95
95
94
97
97
100
98
100
98
101
97
97
94
95
91
91
89
92
93
97
96
99
98
106
103
103
100
103
107
104
104
106
106
108
107
104
103
102
105
105
108
106
107
104
105
104
111
106
107
109
111
110
109
105
103
99
101
102
98
102
102
103
101
103
103
106
107
107
105
107
103
101
99
100
101
101
98
98
98
99
95
96
98
97
97
98
101
101
108
107
108
106
102
102
101
100
100
98
101
103
103
102
103
102
103
104
103
100
99
95
97
97
100
96
96
97
97
98
96
100
103
101
99
98
98
100
98
96
99
101
102
103
102
99
95
97
98
104
103
106
105
103
99
100
99
101
97
98
98
102
103
99
101
102
102
102
103
102
101
99
101
101
101
100
105
106
106
104
107
108
110
105
105
104
104
99
103
101
101
99
96
96
99
103
102
98
97
96
96
99
100
102
99
100
98
96
95
96
97
99
99
100
101
102
101
101
97
98
97
99
102
106
103
103
103
103
103
103
106
104
103
105
108
109
109
110
110
106
102
101
104
103
105
104
109
108
109
107
109
109
112
108
111
111
112
109
109
108
107
107
103
106
110
109
106
106
107
108
106
107
105
105
102
100
97
99
100
99
97
103
107
105
104
103
104
104
107
110
108
106
103
104
106
106
107
107
107
103
103
103
103
99
99
101
103
100
98
95
96
95
97
97
100
97
100
105
104
104
111
112
110
106
105
106
102
102
99
101
99
100
98
97
96
98
97
98
97
98
95
98
100
104
98
100
100
100
100
103
102
103
103
102
103
104
103
105
110
109
110
108
109
102
104
103
106
104
102
97
99
97
101
100
101
99
100
99
99
97
103
104
103
98
99
97
97
96
96
95
96
98
98
104
105
106
105
105
103
102
101
102
99
100
98
102
101
101
102
105
101
103
97
98
102
99
97
99
104
112
110
108
106
105
108
116
117
112
110
107
110
113
114
109
107
103
107
103
106
102
104
98
101
104
103
100
100
99
96
95
95
95
94
96
97
96
96
94
91
94
92
91
90
93
95
96
96
95
93
96
95
97
96
99
95
96
96
97
97
96
102
103
102
103
102
104
103
101
96
94
97
96
97
96
95
95
94
92
94
92
95
93
89
89
91
92
95
99
101
99
101
100
103
105
108
108
115
123
125
122
122
126
130
131
129
124
121
129
133
145
149
156
165
169
165
169
172
172
162
162
170
177
180
186
185
181
170
180
182
179
175
171
174
179
184
177
180
172
166
160
152
150
147
138
136
131
134
135
134
132
134
128
136
134
135
144
139
142
138
134
137
138
131
133
130
127
129
123
119
115
113
117
116
115
109
106
104
104
109
109
109
108
106
108
109
110
111
107
109
108
105
106
106
104
106
105
105
103
98
98
104
100
99
101
101
97
96
98
100
95
96
94
94
92
95
97
95
98
97
99
97
102
98
94
97
96
94
94
91
92
95
97
96
96
93
98
100
100
96
98
98
98
96
95
89
90
87
86
85
88
90
91
92
91
84
89
86
86
88
88
87
88
89
88
88
88
88
86
84
82
81
79
82
84
87
86
88
85
87
88
92
88
91
88
87
83
85
89
92
91
91
90
88
85
84
87
91
93
91
91
87
89
87
87
87
87
85
85
84
88
89
92
92
93
96
102
97
98
97
100
94
93
91
90
90
89
88
88
84
85
89
87
88
86
89
89
90
90
92
89
88
87
88
89
90
90
89
90
92
90
90
89
87
88
86
89
94
95
104
98
96
96
98
95
94
95
92
88
88
88
87
90
88
89
88
89
87
93
91
85
84
86
84
86
82
82
80
81
82
93
90
88
88
91
89
88
88
89
91
90
95
97
97
95
96
100
103
99
97
94
98
96
96
95
93
88
88
86
86
85
91
95
98
93
90
91
92
92
89
88
86
91
89
87
87
90
88
88
87
86
84
84
84
89
87
87
85
90
91
91
88
90
86
86
84
86
84
86
83
86
86
85
84
88
88
91
91
94
96
95
96
93
92
90
88
86
88
86
87
85
85
82
82
81
85
82
82
81
87
86
85
84
87
83
84
81
84
86
86
82
83
84
86
86
83
84
88
91
88
90
89
90
88
92
91
91
91
91
87
90
89
93
91
92
92
92
91
91
93
91
85
85
86
86
85
85
85
83
83
86
88
89
87
84
85
86
84
84
85
86
88
86
87
86
86
84
86
86
87
84
85
83
91
89
93
95
93
94
90
92
93
91
95
94
92
93
92
93
93
92
89
92
90
90
88
91
87
86
85
88
88
85
81
85
85
84
84
84
90
88
94
94
89
89
88
88
89
89
92
92
93
91
92
91
93
90
90
89
88
87
89
90
92
89
90
86
86
84
87
84
84
83
83
83
82
86
87
89
90
89
89
92
91
92
92
90
88
88
87
89
90
92
91
90
88
88
86
90
90
93
93
96
90
90
87
89
89
89
98
94
93
91
88
88
89
88
86
85
87
90
91
94
97
95
95
95
95
92
92
88
88
85
86
85
88
87
90
88
94
90
91
88
90
90
92
91
92
92
92
94
92
89
88
85
84
85
85
85
85
87
84
85
84
86
83
82
81
83
82
85
84
85
80
79
76
77
78
82
85
86
84
86
92
90
89
88
91
92
94
92
89
90
90
87
90
89
90
86
87
86
89
91
94
94
92
90
90
86
84
80
82
82
82
84
83
84
85
85
87
85
84
85
88
93
94
93
90
93
94
97
93
94
89
86
87
92
89
90
91
93
91
91
94
93
91
93
92
90
90
90
89
89
92
95
96
95
95
95
93
90
88
82
87
85
88
86
86
87
87
86
86
84
87
83
86
85
89
86
89
88
89
86
83
82
84
78
80
78
81
80
78
80
81
81
87
89
89
90
89
91
88
90
89
95
92
94
91
91
91
89
86
86
85
86
83
84
81
81
80
82
79
80
81
81
87
91
89
88
87
86
88
86
84
81
81
80
81
80
83
84
86
84
84
83
84
83
86
84
87
83
84
82
81
81
84
81
81
83
82
83
84
80
81
84
84
88
88
87
85
86
85
86
86
86
87
88
91
90
88
88
83
84
86
90
90
93
91
93
93
93
90
89
85
84
85
86
88
90
88
90
93
94
95
97
96
94
96
92
91
88
91
92
94
91
91
89
91
88
92
89
91
91
90
92
97
95
96
91
93
95
94
96
95
94
91
92
93
95
94
97
96
100
100
100
95
94
89
91
90
88
85
87
90
90
91
93
95
92
94
94
93
93
93
93
93
91
90
89
89
89
87
94
95
93
90
89
91
89
89
88
92
89
90
88
87
82
83
82
85
83
87
86
87
88
89
90
87
86
84
86
84
84
83
87
86
86
86
86
85
86
86
88
87
91
88
85
82
81
79
83
83
83
83
82
80
84
85
85
82
86
88
92
90
87
88
85
88
84
85
84
87
87
89
87
91
92
93
93
93
90
90
88
89
86
88
84
85
83
85
87
87
86
87
89
90
85
91
89
87
87
87
87
87
86
84
86
87
90
92
94
95
96
94
99
95
93
90
92
93
95
91
91
88
92
87
88
93
90
90
93
89
93
91
91
90
88
87
84
86
86
86
84
87
85
86
86
84
82
83
80
79
79
83
81
82
79
77
78
81
82
82
82
82
83
86
85
85
85
88
85
85
83
83
82
84
88
89
92
90
90
87
84
83
83
86
86
85
87
87
87
83
87
84
85
85
92
89
89
86
85
87
89
91
93
92
90
90
90
90
88
87
85
87
86
86
86
89
86
86
84
82
81
83
81
82
81
82
80
82
82
82
82
82
82
83
86
89
87
85
87
86
88
88
89
89
87
85
86
87
88
85
87
87
89
87
88
85
85
81
84
84
85
81
85
89
89
88
92
89
88
85
85
86
87
89
88
88
87
83
82
84
85
88
90
88
84
84
84
87
84
89
88
86
88
89
85
86
84
89
85
86
84
86
87
89
89
90
90
89
86
86
86
83
85
86
85
81
84
83
85
85
87
86
87
86
86
87
92
91
89
86
87
83
84
91
92
91
92
91
89
89
87
86
84
82
92
92
90
87
86
87
85
86
86
89
86
86
85
85
82
79
81
84
83
84
85
83
81
85
81
82
82
84
87
89
87
84
83
84
86
90
92
91
94
96
96
93
93
91
91
87
88
87
88
86
88
86
87
86
88
90
91
91
89
89
91
91
92
93
95
93
92
89
89
92
91
93
93
95
98
97
95
93
93
94
91
92
88
90
90
93
91
89
88
90
87
86
81
83
81
83
83
86
86
83
84
83
88
90
92
90
91
89
90
90
90
88
88
86
88
90
94
92
93
89
88
88
87
84
88
88
86
83
84
82
85
87
88
85
84
84
85
88
88
89
90
88
86
82
81
85
84
86
85
86
88
90
88
88
88
87
85
88
86
86
82
84
91
88
90
91
89
88
85
88
85
84
82
81
83
84
85
88
90
88
90
90
90
89
90
87
92
90
90
90
86
85
85
85
86
84
86
83
81
81
79
81
86
86
88
88
88
88
90
91
86
84
82
85
87
88
85
85
83
84
83
84
82
83
79
82
83
80
79
82
82
87
88
89
88
90
87
88
85
90
87
89
89
88
88
91
89
91
89
86
87
87
87
86
86
83
84
83
83
81
82
80
82
79
84
81
81
81
82
83
85
86
90
89
91
89
85
87
89
91
90
92
90
87
84
82
81
84
83
87
88
92
92
95
92
91
88
87
89
93
94
91
90
91
91
91
90
91
95
94
96
93
93
94
93
90
91
87
88
88
89
89
89
87
88
92
94
91
91
87
88
86
87
88
89
90
89
86
85
87
83
83
85
82
83
84
86
86
83
84
85
86
89
88
89
90
89
92
90
93
92
95
95
92
90
91
94
91
90
90
90
87
88
92
90
91
92
92
90
90
91
90
88
85
86
86
87
85
85
84
86
84
89
87
88
85
85
82
86
90
89
92
91
91
92
90
88
88
90
90
89
91
92
92
88
91
92
86
86
89
88
88
85
88
86
87
87
89
88
87
85
88
87
87
88
86
87
86
83
82
80
84
81
82
83
85
84
87
90
86
87
83
85
85
89
88
88
87
88
86
85
83
84
85
85
82
81
80
80
81
81
79
80
78
81
80
82
79
84
85
85
81
81
83
80
79
80
86
91
90
93
94
94
96
96
95
93
91
90
92
91
90
88
90
89
90
86
87
85
87
86
88
84
83
84
85
79
81
80
81
84
86
83
82
84
86
87
86
87
84
83
83
86
86
89
88
89
89
89
90
89
84
89
86
86
81
83
81
86
86
91
90
89
90
92
91
90
92
96
98
94
95
92
95
96
96
91
91
88
87
84
84
83
84
84
86
84
82
80
84
77
78
77
76
79
81
79
78
78
77
80
87
91
87
87
84
86
85
86
84
86
86
87
85
87
83
85
84
82
81
80
77
80
80
81
80
82
84
84
84
87
88
84
83
82
83
85
82
81
84
82
84
83
89
93
98
99
103
96
95
91
89
87
87
88
99
93
89
86
88
89
92
88
87
83
86
91
92
93
94
94
92
91
89
91
86
82
81
83
82
83
82
83
81
84
82
84
85
88
86
88
88
90
89
91
91
97
97
100
98
99
97
104
102
106
105
109
110
108
114
116
119
122
124
122
123
122
123
122
124
125
131
128
133
130
128
130
135
138
142
138
144
151
148
154
157
162
156
157
157
165
171
174
173
180
181
181
187
185
179
178
169
168
160
170
164
157
150
149
152
161
172
165
161
158
161
163
172
161
155
148
157
159
159
154
154
146
148
145
140
139
145
140
143
139
141
146
145
143
140
144
147
146
148
149
142
138
138
144
142
142
140
145
145
148
146
147
140
134
127
135
147
149
144
138
139
141
131
131
135
137
131
132
137
142
144
146
146
142
144
142
138
133
134
128
124
123
125
134
141
141
145
140
146
141
148
152
156
156
163
161
173
190
179
187
191
182
180
179
174
175
180
189
187
191
184
184
179
171
171
167
164
159
155
156
152
150
146
148
141
142
149
149
148
147
152
151
146
142
142
150
157
158
157
153
163
166
157
153
153
147
148
144
145
146
145
150
146
157
162
162
170
167
163
164
165
162
161
161
156
151
148
148
144
142
140
144
143
142
136
138
137
142
143
143
138
136
143
137
148
151
158
161
154
150
156
153
154
151
157
154
158
163
166
165
163
161
160
151
152
149
146
149
152
141
140
148
144
144
143
144
147
148
143
150
148
143
142
147
148
152
152
153
154
153
149
148
143
138
135
137
135
136
134
131
141
138
142
139
144
146
147
157
161
155
162
161
162
172
170
160
153
146
140
133
135
132
130
141
135
138
138
136
138
136
142
140
139
137
140
144
140
143
142
144
143
146
143
143
137
143
143
145
143
143
149
148
146
153
144
143
145
141
142
145
140
130
143
144
140
149
150
151
150
147
144
141
153
152
156
153
152
148
154
155
153
154
151
153
151
155
153
150
152
145
142
138
138
136
145
148
146
139
133
132
137
139
138
147
147
143
143
147
144
148
149
148
145
147
150
147
140
151
151
149
144
139
139
137
142
138
137
142
139
144
147
145
150
150
158
153
156
152
146
143
145
143
138
135
137
133
133
134
136
141
141
141
144
150
142
149
148
153
154
155
156
153
151
153
155
159
164
167
166
164
161
161
157
155
152
151
152
156
154
158
158
165
165
170
169
169
167
161
161
156
157
154
159
158
156
155
153
154
150
148
146
143
143
137
136
131
135
135
137
130
128
126
125
126
127
122
119
114
117
120
119
118
115
118
113
115
110
105
106
110
114
117
114
118
112
111
109
105
106
107
106
104
104
102
104
100
103
104
105
108
110
112
114
114
116
112
114
115
115
110
113
108
106
103
107
114
111
114
117
118
120
114
112
112
114
116
112
109
106
103
107
113
111
110
106
107
103
98
95
97
94
95
95
96
94
95
95
96
90
93
90
89
95
98
97
94
97
97
91
92
96
97
95
96
97
95
98
96
96
96
95
94
97
95
94
95
99
99
101
97
95
94
92
89
86
83
84
84
82
80
83
82
84
84
88
88
88
89
95
93
93
93
90
89
87
85
83
86
86
88
87
91
92
98
97
97
93
95
94
98
101
103
99
96
97
104
100
97
94
101
100
96
98
99
99
97
98
96
93
92
93
92
94
93
96
93
93
89
89
90
88
90
92
88
94
92
93
92
91
91
91
89
93
96
96
95
95
92
90
88
91
92
92
93
92
93
91
89
89
87
89
93
91
92
89
91
90
87
87
85
84
87
84
85
80
76
83
87
85
86
89
90
93
92
93
92
92
94
100
100
100
96
95
93
96
91
91
90
90
90
89
88
89
89
94
95
93
93
94
90
90
91
98
99
97
98
97
99
98
99
98
97
93
93
89
88
88
90
85
88
89
91
89
90
90
95
90
90
92
91
89
89
90
91
89
88
88
88
89
92
92
89
90
94
98
97
98
95
95
92
94
91
93
91
91
89
88
84
91
90
86
86
87
86
92
98
96
100
98
96
95
96
98
95
90
91
90
93
93
92
91
95
93
96
95
98
99
98
95
95
93
92
87
89
89
91
93
95
93
92
91
93
95
94
95
94
96
97
96
93
91
88
90
90
90
88
89
86
82
77
77
77
78
76
79
86
86
88
84
87
90
88
86
85
86
87
86
86
87
84
89
89
90
93
91
91
89
89
88
92
92
92
89
88
85
86
83
83
83
84
82
82
82
84
82
81
82
82
83
84
84
84
82
82
83
81
80
83
86
86
87
86
89
90
90
86
89
90
90
86
90
87
87
89
90
86
87
88
90
89
88
88
92
93
92
91
91
87
87
88
87
88
86
85
88
90
90
90
89
90
89
87
84
85
84
85
82
80
77
74
75
77
77
79
75
78
78
82
81
86
87
88
89
91
89
89
93
92
92
88
90
88
87
84
85
84
87
84
85
83
86
82
82
84
84
82
82
89
89
88
87
92
88
89
87
88
87
82
82
81
83
85
84
83
82
82
81
80
80
82
83
85
87
88
88
86
84
84
84
86
81
83
80
83
86
83
83
87
86
90
92
91
89
88
85
85
84
83
85
87
90
89
90
89
90
88
86
82
82
81
82
82
89
86
87
84
83
82
84
88
89
88
87
86
87
88
91
90
90
91
88
90
91
92
88
87
86
88
87
88
86
87
83
81
79
82
80
79
77
78
79
81
82
82
81
82
83
86
85
85
83
83
83
78
79
78
80
81
84
83
86
88
88
83
81
80
81
79
79
79
80
82
81
78
80
79
81
81
85
86
86
85
89
88
88
85
89
89
86
85
84
85
84
86
83
81
79
79
79
83
86
88
85
87
88
87
87
85
84
84
81
81
83
88
89
90
90
89
90
90
89
92
95
91
91
93
96
93
95
95
94
92
91
91
87
83
84
82
84
80
80
78
80
76
74
74
78
79
81
80
84
86
84
87
87
90
87
88
90
90
90
90
87
90
88
88
85
92
98
103
106
104
99
98
93
93
92
96
95
91
93
95
92
90
87
85
88
90
92
89
93
91
96
95
93
93
93
91
91
91
92
95
95
93
94
97
99
95
99
94
98
98
92
94
96
90
95
97
99
101
102
99
97
96
96
95
92
91
91
90
89
91
86
88
87
86
88
90
88
88
87
91
88
86
85
85
79
84
92
90
91
88
85
87
87
88
91
88
93
91
91
92
93
97
95
95
95
92
91
87
87
84
89
87
89
89
87
85
86
90
92
89
88
87
89
88
90
88
90
91
93
94
91
87
86
86
87
89
88
86
86
91
90
90
87
89
87
91
92
91
92
90
86
87
88
88
90
89
90
93
92
91
89
95
95
92
94
94
92
93
91
87
87
92
93
90
94
92
92
90
92
95
91
91
89
92
90
89
90
87
90
87
91
86
88
91
89
88
90
88
89
91
89
96
93
92
93
91
89
89
88
91
89
91
89
90
86
87
83
84
83
83
87
92
89
90
91
93
90
91
94
97
99
101
98
96
93
90
90
89
95
94
93
92
90
97
97
90
92
93
92
88
88
89
86
83
82
82
84
86
87
84
89
86
89
90
90
92
89
87
84
85
90
89
90
92
92
94
90
92
90
90
86
89
87
89
89
85
84
86
82
84
84
89
87
91
90
88
93
95
96
92
92
95
95
95
95
96
94
96
97
93
92
90
89
87
87
86
86
86
85
82
85
84
83
80
80
80
83
80
82
81
85
88
88
86
85
90
87
91
94
95
93
94
90
87
84
89
86
86
85
87
84
85
86
86
90
89
86
85
85
88
85
88
91
88
86
84
88
84
86
84
88
88
87
89
88
85
86
84
85
86
86
84
85
82
82
82
85
84
86
84
83
83
82
79
80
84
86
85
90
89
89
90
88
88
84
86
86
86
89
92
94
93
92
93
92
100
102
98
94
92
90
91
91
95
90
90
91
95
93
92
95
96
94
95
95
90
95
94
92
91
91
89
90
87
87
86
88
87
88
87
84
81
85
81
81
79
81
85
84
82
84
86
82
81
81
80
81
83
85
86
87
89
89
89
86
88
86
84
83
83
82
83
81
84
86
88
84
89
89
89
89
89
87
89
89
88
87
87
80
80
80
85
89
87
86
87
86
87
85
82
87
85
89
86
86
85
85
84
83
82
85
84
85
84
88
88
87
83
89
90
90
88
89
90
90
90
87
86
87
87
89
88
87
85
82
85
87
90
90
91
91
91
90
91
92
90
90
94
95
95
94
94
90
91
88
87
83
81
85
90
93
93
93
89
90
89
86
84
84
83
89
90
89
88
88
84
85
82
82
83
84
83
86
89
91
88
87
91
93
89
90
92
89
91
91
87
87
88
86
83
85
85
86
90
89
90
89
88
87
87
85
86
84
86
86
87
83
84
84
86
84
84
86
90
91
91
86
88
89
84
86
87
88
86
86
87
86
86
85
84
88
87
88
89
89
88
92
90
89
86
87
84
84
82
82
81
83
81
87
85
87
86
84
84
80
81
79
83
83
87
88
91
93
94
93
94
92
96
93
93
88
89
86
88
87
86
88
88
88
87
89
86
86
88
89
87
87
85
87
86
88
87
92
91
93
92
90
88
89
87
85
82
85
82
80
78
78
76
78
80
85
86
86
81
85
84
85
86
87
88
90
83
85
86
88
89
88
88
86
85
84
83
82
85
85
86
85
86
86
91
86
86
82
87
87
87
84
85
82
80
79
83
83
82
82
83
84
82
83
87
89
89
90
89
86
86
91
89
88
85
88
86
87
87
89
88
89
89
90
85
88
84
84
85
85
89
89
90
90
87
91
87
87
88
85
90
89
87
82
87
88
85
84
85
83
89
87
89
89
87
85
82
81
84
81
85
89
89
85
85
82
79
79
78
81
81
85
83
85
85
87
87
87
90
91
90
91
89
88
87
87
84
86
88
90
86
84
86
83
80
85
83
82
82
82
85
85
87
84
89
88
88
86
88
86
89
88
92
92
90
87
88
85
87
84
87
83
87
90
87
85
84
83
87
89
96
92
91
89
96
92
90
95
100
101
97
96
93
92
92
91
91
96
93
91
87
87
94
96
94
98
93
93
90
88
85
87
85
89
86
85
85
83
79
79
78
79
82
78
77
79
79
76
76
79
80
78
81
81
84
82
88
87
95
92
92
87
90
87
92
90
93
90
93
89
88
90
89
89
90
90
90
88
87
90
91
94
89
92
93
92
90
94
95
98
98
97
99
95
90
91
90
90
89
90
87
91
89
94
92
94
91
91
94
95
91
89
88
87
86
90
88
87
83
81
80
81
80
80
82
84
85
81
82
79
81
84
87
82
82
86
85
83
83
85
86
89
87
86
86
87
83
84
84
85
84
87
85
88
86
88
91
93
90
93
92
90
94
96
92
92
89
95
94
93
92
94
94
92
94
92
93
92
91
88
93
90
89
93
91
91
92
91
92
88
88
88
87
84
87
84
94
89
89
87
91
87
87
82
85
90
86
86
85
86
85
87
90
94
92
93
91
90
88
86
85
86
85
85
84
84
82
82
81
82
84
83
83
82
83
89
87
87
88
90
91
91
89
93
91
89
88
86
91
88
84
82
83
84
84
81
79
78
80
81
82
81
85
81
84
81
84
83
86
81
85
86
89
89
90
89
92
94
91
92
91
91
91
91
89
92
90
88
87
90
91
90
89
89
89
91
88
90
89
87
85
84
80
84
83
81
81
84
87
86
84
84
89
92
94
96
98
94
92
90
92
91
92
89
88
88
87
86
87
84
86
84
88
83
85
83
83
81
82
81
82
86
89
93
93
87
89
87
93
90
86
86
84
82
83
84
84
87
85
87
86
88
84
89
88
90
89
92
92
89
88
85
84
84
82
85
81
80
78
82
81
80
84
85
86
82
81
80
83
85
84
82
85
87
87
83
84
82
84
82
84
84
80
75
79
79
81
83
81
77
79
82
80
81
82
79
77
78
80
80
80
79
77
80
79
84
84
84
81
81
82
81
78
78
76
81
79
79
76
76
73
74
72
76
85
84
83
82
81
82
79
77
78
79
85
90
90
93
97
93
90
93
94
92
91
90
89
86
86
84
87
84
84
84
88
85
85
84
85
82
81
83
81
86
86
84
82
80
82
81
81
83
83
86
84
81
81
85
90
89
87
89
87
87
84
82
83
89
85
83
85
85
84
82
83
82
88
86
89
90
91
90
88
83
83
83
84
84
85
82
83
83
87
84
86
84
88
84
83
82
85
82
83
85
89
85
85
85
84
83
82
87
88
89
87
91
90
93
91
91
91
90
87
89
82
85
82
85
83
88
86
87
87
90
87
86
84
89
88
89
88
86
88
85
83
80
85
86
85
83
83
81
83
81
81
82
82
80
81
80
88
83
86
84
86
87
90
86
87
88
86
87
87
88
88
84
86
84
83
81
81
81
84
86
89
89
85
85
82
84
86
90
90
89
87
88
85
87
88
90
91
95
92
91
86
88
91
88
88
88
87
84
83
89
87
87
91
89
91
88
86
85
87
84
84
83
88
89
86
85
86
87
88
87
87
85
85
82
80
78
80
81
81
81
82
82
80
79
80
78
78
79
78
79
83
85
84
83
80
81
80
83
80
82
82
84
85
88
85
86
83
86
82
79
81
87
86
86
89
85
84
81
82
81
83
81
77
75
80
78
80
77
76
75
82
82
84
83
84
81
79
80
81
83
86
87
85
87
88
87
88
85
86
84
89
89
85
83
85
87
85
86
84
84
90
90
87
86
83
82
79
80
79
79
81
82
82
81
81
84
83
85
80
86
88
86
88
88
88
85
85
85
87
86
88
90
91
88
90
86
84
83
84
80
79
82
82
82
83
80
83
81
84
85
90
86
88
87
85
91
89
89
86
86
90
87
86
88
84
85
83
83
81
81
85
84
83
86
83
83
82
83
81
83
86
88
81
81
83
82
87
87
86
91
91
90
90
92
89
87
94
89
86
86
86
84
83
81
82
82
81
83
83
80
78
79
80
78
76
74
77
86
85
85
87
86
85
84
89
88
90
91
90
90
87
87
84
83
81
85
84
86
85
87
84
84
85
88
87
88
84
89
88
87
86
84
86
87
84
87
91
90
90
87
85
83
84
84
84
81
85
82
81
79
81
84
85
83
86
81
84
85
82
77
77
74
79
82
80
80
77
79
84
84
86
88
88
89
89
90
88
88
91
91
88
90
87
87
85
84
80
