141
142
141
141
141
141
142
142
142
143
144
143
143
143
144
143
142
141
142
143
142
142
140
138
138
138
139
139
139
139
140
141
141
140
141
141
140
140
140
140
141
142
141
143
143
144
144
144
144
145
144
144
144
144
144
144
143
141
139
140
141
142
142
143
142
142
142
142
143
142
143
142
141
141
141
141
142
142
143
144
145
145
145
144
144
144
145
146
144
144
143
143
144
143
143
143
142
142
141
142
141
141
143
143
143
144
144
144
142
142
142
144
144
144
144
145
145
146
145
144
146
146
146
147
149
148
145
145
158
147
164
185
222
266
289
289
260
248
247
232
215
203
171
149
148
151
157
143
128
115
110
109
111
107
110
108
109
112
114
115
116
118
116
116
117
116
117
118
120
122
121
122
122
122
120
122
124
125
124
124
125
125
127
125
127
126
126
126
127
126
127
128
128
127
127
128
130
131
133
132
132
130
131
131
130
130
127
127
128
127
127
128
128
130
129
130
128
129
131
130
130
129
130
131
132
132
132
133
132
133
133
134
133
134
134
135
134
133
134
133
133
131
132
130
130
129
129
130
131
131
132
132
132
133
134
133
132
132
132
133
134
136
134
138
137
138
152
156
189
223
261
248
238
276
262
265
262
225
178
154
152
158
154
140
120
110
109
110
113
112
114
114
114
113
116
117
119
120
121
120
122
123
124
125
126
127
127
128
130
131
131
131
130
130
130
127
127
129
130
130
130
131
131
132
132
134
134
133
136
138
133
133
132
134
133
133
134
134
135
138
138
138
139
138
139
139
138
138
138
139
139
137
138
136
135
136
135
134
134
136
136
139
138
138
138
137
138
136
136
136
139
138
138
140
139
139
137
138
140
139
141
140
141
140
142
140
139
140
139
138
136
137
138
136
137
135
138
138
139
139
138
137
138
137
138
137
137
140
138
138
139
140
140
138
138
137
139
140
140
141
142
142
140
139
136
139
139
137
137
136
136
136
137
138
136
137
136
137
138
138
139
138
139
139
138
139
140
139
139
140
140
139
140
140
140
140
141
141
141
141
140
139
140
140
140
139
138
139
139
139
139
140
140
140
141
140
139
137
138
138
138
137
137
138
140
141
142
141
141
141
142
143
143
144
144
148
147
144
145
154
156
154
159
163
171
187
192
188
191
209
220
234
233
235
235
225
211
193
175
158
147
138
133
131
131
131
128
129
131
132
129
133
133
136
133
135
136
134
132
132
133
132
132
132
132
133
133
135
134
135
137
136
135
132
135
135
134
136
135
137
139
138
139
138
137
138
140
141
142
142
141
140
140
140
140
138
135
137
138
139
141
138
135
135
136
137
136
140
138
140
139
139
137
136
135
136
139
138
139
140
143
142
141
142
141
139
140
141
141
139
141
139
140
140
142
142
142
138
140
139
140
139
138
137
138
140
139
139
141
141
140
140
141
142
144
142
142
142
143
143
143
142
144
143
146
146
144
146
145
146
143
144
142
142
141
141
140
138
140
143
158
164
167
177
181
191
190
189
182
181
187
183
190
193
193
187
194
192
179
165
156
144
142
137
132
130
127
126
122
124
122
120
122
121
122
124
126
128
129
129
131
132
131
130
130
129
130
131
131
131
132
132
133
134
137
137
137
137
134
135
136
136
138
134
135
134
136
133
132
133
131
130
135
133
134
134
133
137
137
136
140
136
135
135
137
137
136
135
136
138
136
140
141
141
139
141
142
143
141
141
140
141
141
140
139
139
137
136
135
139
139
140
137
138
140
139
139
138
135
136
137
138
139
139
138
140
141
139
141
140
139
138
139
140
142
141
140
139
139
141
141
139
136
137
136
137
137
137
139
138
136
140
140
142
139
139
139
138
137
137
140
137
139
140
140
141
140
140
141
141
140
140
144
143
144
144
140
142
139
138
137
137
137
136
138
137
140
138
139
140
140
140
139
140
141
140
140
140
140
141
141
144
143
142
141
141
144
149
156
172
195
210
206
223
212
226
244
227
195
159
157
140
132
127
123
121
119
121
124
123
124
126
127
126
126
126
128
126
128
130
132
132
132
132
135
136
138
136
136
137
136
136
135
134
135
137
135
135
137
138
136
135
133
135
137
137
136
138
138
139
137
137
136
137
137
141
139
141
141
142
144
144
143
144
143
144
146
144
145
143
144
143
141
141
140
140
142
142
141
144
143
145
144
143
140
141
144
143
143
142
143
142
142
142
142
142
144
144
144
143
145
145
145
147
146
145
144
145
144
144
143
140
142
143
141
141
143
141
143
142
144
143
143
144
144
143
143
146
143
143
143
143
143
144
146
147
148
146
147
145
146
145
146
146
147
146
145
145
145
146
142
143
142
141
143
141
142
141
141
143
145
145
146
145
145
147
145
143
144
144
144
144
145
146
147
146
148
148
147
147
146
146
150
151
152
146
148
147
145
145
144
143
143
142
142
144
143
144
144
145
144
143
144
144
143
143
142
143
144
145
145
146
145
145
145
145
156
174
194
202
206
189
175
202
244
264
266
234
207
193
146
135
126
119
115
113
113
117
121
123
126
127
127
127
128
128
128
130
131
131
134
136
135
135
138
138
139
141
141
140
142
144
146
149
145
147
145
147
143
141
141
142
142
141
142
144
143
140
143
145
148
147
148
148
146
146
146
146
147
145
146
147
150
145
150
149
148
148
150
151
151
152
151
150
151
148
147
147
147
146
145
147
147
150
148
149
149
147
149
148
150
149
150
149
150
152
152
153
153
153
153
153
155
156
155
154
154
155
155
156
157
155
156
155
153
154
152
151
152
149
148
148
150
151
153
156
155
154
151
152
151
153
154
153
153
153
154
155
155
156
153
154
155
156
157
155
156
156
156
156
156
156
154
154
154
153
153
156
154
157
154
154
152
152
153
152
154
156
156
154
153
153
154
156
155
155
153
151
152
154
156
156
157
157
159
161
159
157
155
155
155
152
155
153
153
150
151
151
153
156
155
154
155
155
154
157
154
153
154
155
153
153
153
154
154
155
154
154
155
156
159
162
162
162
164
162
162
158
158
158
158
156
157
154
154
153
155
154
154
154
154
153
156
156
156
158
158
157
157
157
156
155
158
158
157
157
158
157
157
158
159
158
161
160
159
163
160
159
158
159
157
157
155
156
155
154
155
156
157
156
155
156
157
157
157
157
157
156
155
157
156
158
159
156
158
157
153
155
158
159
160
161
160
160
158
159
157
155
153
155
154
157
154
153
155
156
154
156
156
156
155
157
158
155
157
161
158
156
155
157
156
157
156
156
158
157
162
176
180
181
194
205
199
193
218
200
205
195
184
170
167
161
156
153
152
152
156
160
164
170
174
177
182
184
185
185
187
189
190
190
192
195
195
197
195
199
200
200
202
205
205
204
206
206
206
205
203
205
205
204
203
204
205
204
202
203
201
202
204
207
208
204
205
205
205
204
205
203
203
204
204
202
204
202
197
193
190
187
187
187
188
188
186
186
186
185
183
182
183
181
182
182
182
183
182
181
183
183
184
184
184
185
186
185
184
181
184
184
185
184
184
185
184
185
190
187
187
190
191
191
190
190
186
185
186
186
184
182
179
176
171
167
164
164
163
163
162
159
161
162
161
160
161
158
158
158
160
160
159
159
161
161
161
159
159
159
164
163
165
163
165
164
162
161
161
161
160
158
159
161
160
163
161
161
163
162
162
164
161
161
162
162
159
158
158
160
159
161
162
163
162
161
163
164
166
167
166
165
166
165
162
163
162
161
158
159
160
161
160
160
160
160
159
160
160
162
162
162
162
162
160
161
160
161
161
164
162
163
163
165
167
167
165
166
167
166
167
168
167
166
166
165
166
162
161
160
160
157
159
161
163
163
165
164
166
164
164
164
164
164
162
162
161
163
161
162
162
163
163
164
162
165
164
163
165
165
166
166
165
164
166
167
163
160
160
159
161
164
178
180
172
206
183
172
166
168
192
178
195
178
166
159
152
149
146
142
145
146
150
151
156
157
161
163
165
166
168
169
172
173
175
176
178
184
184
184
185
185
184
184
183
183
184
185
186
187
188
186
187
187
184
186
185
184
186
188
188
189
187
186
187
189
189
191
190
189
190
188
188
188
187
185
186
186
188
188
188
187
184
186
187
187
189
188
189
189
188
188
188
188
186
189
186
188
189
191
192
192
193
193
192
192
193
194
192
195
195
194
191
191
190
187
189
187
189
190
189
189
190
189
188
190
192
190
191
191
192
192
189
188
188
187
189
192
194
193
194
192
194
193
194
193
195
195
196
194
195
194
191
190
191
188
188
189
193
192
189
189
188
189
190
191
193
194
192
192
189
190
190
188
190
192
193
194
195
196
195
193
193
195
193
193
194
196
196
195
192
193
193
190
191
190
191
190
189
190
190
193
192
192
191
190
190
191
190
189
187
184
185
185
184
184
183
183
182
183
181
177
173
171
169
170
170
167
166
164
164
164
165
164
165
162
160
163
163
161
162
163
163
165
163
164
163
162
162
162
162
163
163
164
164
165
164
164
165
165
165
165
165
166
