160
160
162
161
163
162
160
160
161
162
164
164
162
162
160
160
159
161
159
160
160
163
162
162
162
163
163
162
162
161
161
160
161
160
161
159
162
160
161
161
161
161
162
163
160
161
161
163
160
161
161
161
158
159
161
163
162
164
163
162
163
161
162
161
161
161
161
159
159
158
160
158
160
161
162
163
162
163
162
162
162
161
160
162
160
162
160
161
161
162
163
163
163
161
163
162
163
162
164
161
161
157
159
161
163
163
164
164
164
164
161
162
161
161
158
160
161
163
161
164
163
163
166
166
165
163
163
162
162
158
160
159
160
159
163
163
164
163
166
168
166
167
165
164
161
163
162
163
162
161
161
166
165
165
165
166
165
165
165
161
160
158
160
158
161
159
160
162
161
161
163
162
161
161
161
164
162
163
160
160
159
161
160
161
161
164
163
162
163
161
162
162
162
160
160
158
160
161
163
164
163
163
164
164
165
164
164
164
164
164
163
163
161
162
162
164
163
164
164
164
165
164
165
163
163
161
161
159
162
162
164
162
163
164
164
164
166
165
164
162
163
165
162
166
162
163
160
162
163
166
165
165
166
165
164
163
164
161
163
161
161
161
161
161
163
163
164
164
169
169
166
184
184
178
207
238
293
327
316
321
303
312
311
294
296
300
279
223
188
170
164
159
162
158
159
157
160
158
160
158
158
159
157
160
157
157
157
158
157
160
157
155
156
158
159
160
160
158
160
158
159
156
159
159
160
158
156
158
159
158
161
162
160
160
158
161
160
159
158
159
158
161
157
159
160
160
161
164
166
164
165
163
163
160
161
159
163
161
162
160
162
161
164
163
164
164
163
162
159
160
159
161
160
163
160
160
161
163
162
164
164
163
162
163
162
161
162
159
160
159
158
160
162
162
162
165
164
167
166
164
161
161
159
161
159
161
158
163
161
166
182
182
176
209
233
264
272
267
315
318
291
300
292
258
277
281
306
297
237
198
175
170
166
164
163
166
160
157
154
155
155
158
160
159
161
159
158
158
160
159
159
158
158
160
164
160
162
162
162
160
160
161
159
163
160
160
161
161
159
159
161
162
160
160
160
161
160
160
160
158
157
158
158
160
162
162
163
162
164
166
167
168
167
164
161
162
162
163
161
162
160
162
163
163
164
164
165
164
165
164
165
164
163
162
162
160
163
162
164
164
166
167
166
166
167
167
163
163
164
163
163
164
163
164
164
164
165
166
166
166
167
165
166
165
165
163
165
163
165
163
164
164
169
168
168
167
166
165
165
168
167
163
161
171
172
169
179
187
192
205
198
204
226
232
234
222
217
205
191
181
174
164
161
155
157
157
159
157
157
159
158
157
155
156
157
160
159
161
158
159
158
161
161
162
162
161
161
160
161
160
159
158
159
160
165
161
161
162
163
163
165
163
162
163
162
164
161
163
159
160
162
164
164
164
163
165
165
163
161
159
163
163
162
160
160
162
164
162
161
164
163
166
166
167
166
166
165
163
162
161
161
163
164
167
166
164
163
164
164
162
164
165
165
165
165
162
163
162
162
161
163
164
165
164
162
164
163
163
163
163
159
163
162
164
163
164
165
164
163
163
166
166
164
163
161
160
161
160
162
160
160
163
164
166
166
166
163
166
165
165
165
166
163
164
162
160
163
167
165
168
168
168
167
165
166
164
166
166
168
167
166
166
164
163
167
176
192
183
187
190
206
218
215
232
220
218
223
219
211
207
194
185
182
172
161
156
155
153
154
152
155
152
154
155
156
157
157
159
159
161
160
162
160
164
163
163
163
163
161
162
163
164
166
167
167
164
166
165
166
166
166
165
168
166
168
166
166
166
166
168
168
170
167
167
164
164
165
166
165
168
166
167
167
168
170
169
168
168
169
167
167
165
168
164
167
166
168
167
169
173
171
171
169
169
167
167
167
172
168
170
168
169
167
170
167
170
171
172
171
169
171
167
167
167
168
165
167
169
171
174
172
171
168
170
169
170
167
168
170
171
171
170
170
172
170
171
170
172
172
172
174
171
171
170
172
169
173
170
170
170
174
171
172
171
171
172
172
171
170
171
170
169
168
170
170
171
173
172
171
169
172
173
174
172
172
169
170
170
170
167
158
167
194
202
213
250
290
321
309
271
217
203
182
163
156
154
145
143
146
150
149
147
150
148
146
147
147
147
150
151
153
152
151
152
155
154
157
158
160
161
159
159
156
156
156
156
156
160
158
157
158
160
159
160
159
159
159
158
159
157
158
157
158
159
161
161
161
161
160
160
159
161
161
161
160
162
161
161
158
160
161
162
161
164
166
164
164
162
162
161
161
160
160
161
163
160
161
162
162
160
159
161
164
165
162
161
160
163
160
161
161
162
161
162
165
166
163
163
161
160
162
160
161
161
161
162
162
162
160
162
165
165
166
167
164
164
161
163
164
164
161
161
162
163
161
164
165
165
164
167
166
166
166
163
162
162
162
161
163
162
162
159
158
159
159
161
161
165
165
163
163
165
164
162
160
164
162
164
166
165
166
167
166
167
167
164
166
163
164
164
166
163
166
164
165
165
165
167
165
166
163
165
164
163
162
163
164
163
163
166
167
169
166
168
165
164
165
164
164
165
167
164
164
159
162
162
166
165
167
166
167
167
165
167
167
166
164
167
164
166
166
166
165
168
165
167
172
170
167
166
165
165
166
164
164
164
165
166
168
167
167
169
170
170
168
169
167
165
164
167
167
169
167
168
166
169
167
168
169
169
169
168
169
167
167
165
167
168
168
167
168
168
169
182
230
232
231
250
259
281
282
270
223
202
160
150
145
148
146
151
150
151
150
151
149
149
148
147
145
147
150
150
153
152
155
153
155
154
154
155
153
152
154
153
151
155
156
156
154
157
157
159
160
160
159
157
156
155
158
158
156
154
156
152
155
155
159
160
159
156
158
160
160
158
157
156
154
157
155
156
155
157
160
160
160
162
160
160
160
162
160
155
155
153
157
156
156
159
159
159
160
158
159
160
161
162
161
160
158
158
156
157
158
159
158
158
158
162
163
161
162
161
161
162
162
159
162
161
162
159
162
158
161
161
162
164
164
162
163
162
162
163
159
160
157
159
157
161
159
162
163
162
163
164
163
163
163
159
161
157
160
158
160
161
163
162
163
164
163
165
163
162
161
161
161
166
162
163
161
163
161
165
162
164
164
162
161
162
162
161
163
159
163
163
162
162
165
161
163
163
164
163
162
165
163
161
158
159
162
165
162
162
163
166
165
165
164
162
165
164
163
160
160
158
160
164
203
220
215
228
233
207
227
218
206
190
179
171
165
167
161
159
160
161
159
164
166
167
168
169
170
169
168
165
164
166
170
169
170
169
170
173
172
173
174
174
171
172
170
172
171
171
171
172
172
169
167
172
174
175
176
176
176
174
175
175
177
176
175
173
172
171
177
176
177
176
178
177
176
177
174
175
177
177
175
177
176
176
176
177
176
176
176
178
179
179
177
175
178
176
179
175
178
174
178
179
178
179
179
180
181
181
181
182
179
178
177
179
178
177
177
179
179
183
183
181
182
181
182
181
179
179
181
179
179
177
177
178
178
178
181
181
181
182
181
180
177
177
174
173
170
171
167
169
169
168
169
169
169
171
171
171
171
168
169
167
168
166
168
166
167
170
170
168
167
168
168
170
169
169
167
166
165
164
164
165
164
166
165
166
168
168
169
168
168
167
169
167
166
167
168
165
165
164
165
165
168
170
169
168
168
168
167
168
165
170
167
170
165
166
165
166
167
168
169
169
170
166
169
171
160
193
228
208
205
196
167
189
183
175
171
164
161
157
154
157
156
157
155
157
153
154
155
157
156
155
156
157
159
159
158
159
160
159
160
157
159
158
159
160
162
159
162
163
163
162
163
162
161
162
158
160
158
159
159
160
159
161
160
162
163
161
161
158
160
159
161
159
160
159
159
157
158
160
164
161
160
161
161
161
159
161
161
159
158
157
161
164
162
162
161
160
161
165
163
159
162
159
159
160
161
158
159
159
160
160
159
161
162
164
163
163
161
164
161
163
162
162
162
162
164
160
160
161
164
162
162
161
158
160
162
160
160
159
161
159
161
160
164
163
163
160
162
160
158
161
162
164
159
158
158
161
159
161
158
160
158
160
162
161
160
162
160
158
160
158
162
160
159
159
161
161
162
161
164
162
159
162
161
162
159
159
159
160
160
162
159
162
161
163
163
162
161
160
160
159
160
157
158
156
161
161
163
163
159
161
160
163
164
161
160
162
160
162
160
162
160
160
159
161
164
167
169
168
168
168
167
170
171
170
170
168
167
166
167
169
170
169
169
167
168
168
166
166
166
169
166
164
162
164
163
163
160
162
160
158
160
160
162
162
163
162
165
160
159
156
156
156
158
159
163
163
163
166
167
165
164
167
165
169
165
167
168
171
171
175
176
173
172
170
170
168
166
163
161
160
159
158
162
159
161
161
162
162
164
162
162
163
161
164
159
161
162
159
158
160
160
161
161
162
161
160
162
161
160
160
161
162
161
160
