452
448
455
453
456
459
455
461
453
464
452
468
456
465
452
468
460
471
462
473
461
472
465
471
469
470
472
464
472
464
472
463
476
466
479
462
479
468
480
472
481
472
483
476
482
477
480
480
473
478
469
481
467
480
467
478
467
481
466
483
471
485
473
482
479
486
478
481
477
474
478
469
483
468
481
474
486
473
488
478
492
478
496
483
493
488
490
488
489
484
479
481
474
485
469
479
471
483
468
479
468
479
471
487
480
490
486
491
484
491
489
485
489
484
495
477
493
481
493
478
494
482
494
483
495
485
498
491
496
493
492
488
485
483
476
491
477
490
478
489
473
493
482
490
483
498
484
499
487
489
480
489
483
478
483
479
486
472
482
473
495
481
497
488
499
482
497
482
490
478
484
477
480
483
478
473
460
463
452
460
452
464
453
467
461
473
464
481
474
483
477
479
473
471
472
468
472
467
472
466
471
464
477
466
483
480
494
488
504
496
500
505
524
519
509
486
445
421
382
349
318
294
276
263
239
238
222
217
198
207
216
199
215
215
203
201
210
211
235
223
219
216
211
204
214
208
209
193
190
202
192
207
234
218
210
222
224
226
226
208
206
209
189
186
183
194
184
182
167
159
150
147
146
144
143
143
142
138
138
136
135
137
144
141
147
149
154
157
164
165
172
173
178
176
182
181
187
189
194
194
198
201
201
208
208
212
209
216
214
219
219
226
224
235
232
240
238
244
244
248
248
249
250
248
253
253
256
253
260
257
263
263
271
266
273
270
275
272
274
270
272
271
273
275
271
276
276
282
276
284
280
288
282
292
286
294
291
297
293
296
293
296
293
292
296
292
298
296
301
295
302
298
304
298
306
302
309
304
308
307
312
308
309
306
308
310
305
307
303
308
302
312
307
315
311
317
311
317
313
318
313
315
311
312
310
308
312
309
313
308
316
309
319
313
320
315
321
317
326
320
324
322
324
322
324
322
319
321
316
321
316
326
318
327
320
329
322
331
327
332
326
333
328
332
328
332
332
330
337
329
333
327
336
327
334
330
338
330
338
333
342
336
341
338
341
336
338
339
334
340
333
340
332
342
332
340
333
345
337
344
339
348
341
345
340
342
337
335
332
329
333
327
328
326
335
328
333
331
341
334
347
343
352
346
355
352
353
351
349
349
352
354
343
348
348
357
342
318
288
265
235
244
236
208
211
218
214
223
255
248
235
240
237
272
263
222
221
212
209
210
189
185
192
181
217
187
180
167
162
158
149
146
142
143
140
142
140
138
137
134
133
131
132
133
133
139
137
140
142
142
144
147
153
154
157
161
167
167
174
175
178
179
186
186
193
191
197
197
203
203
206
208
210
213
212
217
217
223
219
227
226
234
233
241
239
243
242
246
243
246
244
244
246
246
250
247
251
249
253
250
258
256
264
262
269
268
273
271
276
272
274
272
273
273
273
277
274
279
276
282
276
284
281
287
282
289
286
291
289
291
288
291
290
290
291
289
293
287
291
290
298
290
295
294
303
296
303
299
304
298
301
297
299
297
296
297
294
298
296
299
295
304
297
304
302
309
304
309
305
309
305
307
305
305
305
303
306
302
311
309
318
311
322
316
322
318
327
323
334
332
334
331
340
352
347
324
310
258
238
247
287
273
294
330
307
298
298
269
259
230
230
197
181
167
168
161
168
151
139
132
131
137
140
138
143
147
155
158
167
170
176
176
181
184
190
194
196
203
208
214
212
217
219
225
223
230
229
235
233
241
240
247
246
251
251
253
255
254
256
255
257
254
260
260
268
263
271
269
276
271
278
275
279
278
279
278
279
281
280
288
282
287
281
286
283
289
284
290
287
293
288
294
289
293
290
290
288
287
290
287
290
286
291
286
291
288
295
290
298
295
301
295
301
297
300
299
301
302
299
302
299
302
297
303
298
303
299
307
302
310
307
312
307
311
307
309
306
307
306
302
305
303
305
300
308
305
309
304
312
308
312
308
314
308
312
307
310
308
308
309
305
309
307
311
306
312
308
313
308
317
312
318
313
319
314
316
312
315
311
310
313
308
312
309
313
308
315
312
318
313
321
317
324
320
325
320
323
319
321
319
317
320
316
319
315
322
315
320
317
325
318
326
323
329
323
327
323
328
325
327
329
330
335
331
335
330
339
334
344
342
357
352
369
352
339
329
302
290
269
269
252
260
290
246
251
255
235
212
183
164
152
161
163
165
154
152
148
148
150
155
158
160
166
170
178
183
194
195
206
202
210
211
223
223
235
235
244
245
250
252
258
256
258
262
261
267
263
273
269
279
274
279
275
285
280
287
284
290
286
291
289
292
291
290
292
290
293
291
295
291
299
296
303
300
309
305
312
308
311
308
310
306
306
305
305
307
303
307
306
311
305
312
309
314
310
318
316
323
318
322
318
320
316
315
315
313
317
313
319
316
319
313
322
320
325
320
328
323
329
322
326
321
324
322
322
322
320
324
319
323
320
326
319
326
322
328
322
330
326
331
327
333
332
337
334
332
332
329
333
326
332
328
335
327
334
330
336
332
343
339
347
342
344
344
346
342
339
342
337
343
336
343
338
349
339
345
341
352
345
352
347
353
345
347
341
341
339
337
339
335
341
336
340
334
343
336
342
340
349
343
352
348
353
349
353
350
350
351
348
351
347
356
347
356
351
360
352
359
354
363
355
362
354
357
354
357
355
353
354
352
356
350
358
351
360
352
362
356
363
357
368
359
368
362
365
362
364
362
361
362
358
362
355
361
354
363
353
363
357
364
358
369
362
370
366
369
364
365
363
360
360
356
360
352
363
355
365
354
364
358
366
358
367
361
368
363
366
361
364
363
360
363
359
365
356
365
360
369
358
369
363
373
364
374
368
372
367
370
367
370
368
364
367
361
368
357
366
358
366
354
351
340
337
326
344
325
337
338
336
329
333
332
324
322
314
316
318
318
316
320
307
317
317
326
323
338
337
351
354
362
360
358
362
358
366
363
373
365
375
369
384
378
389
385
395
385
396
388
392
387
388
388
387
391
385
390
384
392
384
392
384
396
388
397
392
403
395
404
397
401
395
394
392
391
390
387
393
383
393
384
391
381
390
384
391
384
392
385
392
386
389
385
388
383
382
383
380
384
377
386
380
390
381
393
387
397
390
400
393
401
395
399
394
396
394
392
394
389
395
389
398
391
400
388
400
394
405
396
407
398
409
402
405
401
404
402
400
402
397
404
396
404
397
407
395
407
401
412
404
415
407
414
409
411
408
410
406
403
403
400
408
397
406
400
409
399
412
404
418
409
421
414
421
414
416
411
412
410
407
410
405
411
402
409
403
413
402
414
406
416
408
418
411
420
411
416
411
413
411
407
410
405
411
403
409
402
412
400
411
406
415
408
418
409
416
410
412
406
409
406
403
405
403
408
400
404
397
406
398
405
402
412
404
411
406
413
407
410
404
403
400
398
396
400
416
405
380
376
376
369
365
364
374
359
375
371
377
368
372
370
368
365
370
369
363
376
371
379
377
380
368
372
369
379
373
379
375
383
377
382
384
391
391
392
396
393
399
393
398
391
401
393
399
396
406
399
405
402
408
403
406
400
402
399
399
402
397
403
399
405
397
407
398
410
405
417
409
419
413
419
415
415
410
413
413
409
418
412
417
409
418
410
419
413
423
414
427
419
427
416
424
417
420
415
417
414
414
418
412
417
411
418
406
416
409
416
410
422
416
426
421
429
423
426
420
420
417
416
417
412
413
408
417
409
419
412
418
413
422
415
422
418
425
418
419
413
416
413
411
413
408
412
407
415
407
416
411
420
415
427
421
427
421
427
421
421
415
417
413
413
416
411
415
410
418
409
418
411
418
414
423
417
423
418
424
418
418
412
412
399
390
383
388
391
382
365
350
366
364
377
367
385
376
382
371
377
376
381
378
380
384
405
403
390
396
400
415
398
404
393
402
393
404
401
410
403
410
405
408
406
409
409
406
411
404
410
404
414
401
412
405
417
408
416
412
424
417
423
419
421
415
413
415
415
420
415
423
415
426
415
424
416
428
419
430
422
431
423
427
420
421
414
414
410
404
404
399
401
396
400
389
381
372
366
363
354
351
345
340
339
332
329
318
320
316
324
321
327
320
322
317
320
310
316
313
322
321
329
333
334
338
335
336
330
337
336
347
350
357
354
351
345
345
340
343
341
347
353
361
372
377
382
379
380
374
375
368
369
366
367
368
370
380
383
392
392
401
400
403
399
400
394
393
388
390
383
383
378
378
375
374
375
372
375
376
378
377
382
383
383
384
387
383
384
380
384
379
380
377
377
377
376
379
377
381
379
382
380
388
388
393
394
401
395
399
394
395
389
390
390
390
389
387
393
391
397
396
401
398
405
403
407
405
411
407
407
402
406
401
403
402
403
402
397
402
398
404
401
408
404
412
409
414
413
418
413
415
412
417
415
416
416
415
415
410
417
414
423
418
427
420
427
424
430
425
431
425
427
423
425
419
421
424
424
432
428
439
388
342
355
374
361
373
380
388
369
375
369
369
366
