797
810
807
810
811
810
815
816
816
811
806
804
799
792
794
788
792
783
797
790
790
787
793
789
787
788
789
789
787
788
788
791
790
789
789
796
792
798
796
794
792
792
797
795
789
787
790
790
792
795
794
794
793
791
799
792
783
783
783
791
795
788
796
792
791
778
783
786
787
787
793
794
789
790
792
797
796
795
789
792
791
791
788
800
793
795
784
784
787
783
786
784
792
788
784
792
797
797
793
791
794
792
792
791
798
796
797
796
800
800
799
797
795
799
794
791
792
793
794
796
790
790
789
795
790
795
790
793
791
792
795
793
788
791
789
786
785
785
789
794
798
795
799
797
797
794
804
794
797
790
789
786
787
786
782
785
786
786
782
782
778
778
771
782
779
782
776
783
780
782
782
784
800
828
903
924
941
944
937
941
934
936
935
922
917
900
883
856
846
830
818
810
808
805
807
807
796
795
798
800
793
790
786
784
777
783
783
791
784
793
794
793
791
795
796
790
800
796
786
789
788
790
786
785
787
781
792
788
788
782
783
776
786
779
785
784
793
794
793
793
791
784
783
789
785
786
777
778
773
780
780
785
783
793
784
787
782
784
783
781
783
787
790
783
796
789
792
792
796
792
789
787
787
784
786
780
776
774
782
776
786
786
783
777
777
783
786
789
786
785
783
787
779
785
786
786
783
783
786
815
824
862
893
936
939
945
946
947
939
938
940
917
911
890
869
853
848
832
829
823
821
812
815
812
806
802
800
791
797
799
794
799
795
800
799
801
805
809
806
813
808
805
801
805
809
813
813
809
806
808
811
809
808
808
807
800
807
804
806
803
798
796
799
795
794
796
800
804
798
804
800
797
793
793
799
800
790
793
794
795
803
800
797
803
801
800
792
796
797
794
799
795
799
796
797
794
797
792
793
790
797
792
795
789
787
783
792
783
793
789
792
792
795
792
792
789
791
793
795
796
791
804
795
803
803
807
799
803
807
808
794
797
799
795
794
797
800
799
795
792
796
800
802
801
803
797
799
802
797
787
788
787
789
790
794
792
784
780
779
785
793
806
818
826
830
839
837
843
835
837
835
840
842
839
834
838
830
824
827
815
806
799
794
796
795
789
797
789
787
781
785
783
784
786
784
782
780
787
786
787
787
792
786
787
786
793
788
794
794
794
792
799
789
796
788
796
791
790
788
785
782
774
774
776
782
782
783
775
783
777
784
777
781
776
780
776
785
780
781
783
777
778
774
780
779
779
783
781
779
782
780
786
775
778
777
788
782
787
784
786
784
787
790
790
789
786
782
775
781
775
783
776
782
776
785
780
792
780
788
778
792
805
818
829
838
841
840
834
836
839
826
836
829
833
827
829
814
810
803
797
788
792
783
781
785
790
788
789
790
786
783
776
777
782
782
777
782
780
782
780
784
784
788
783
784
782
782
790
796
800
793
784
779
779
788
784
787
786
783
792
793
795
792
793
789
787
784
782
783
784
787
785
785
784
789
779
780
780
779
779
790
782
781
780
791
787
785
776
782
776
778
781
786
788
784
781
774
776
777
779
775
782
783
782
779
780
778
781
777
785
787
782
779
776
776
775
780
777
782
784
776
777
779
783
791
787
786
786
783
774
781
783
779
774
778
780
783
783
778
774
780
777
777
780
782
787
780
783
776
787
781
785
778
786
782
783
785
787
783
781
773
777
777
791
813
817
818
838
854
866
891
908
907
897
892
888
890
885
874
864
851
832
825
822
818
813
811
810
799
808
802
807
811
818
808
805
801
803
792
793
794
792
791
791
792
796
796
794
803
798
795
798
796
784
788
784
788
787
792
792
791
782
789
789
799
793
790
783
787
791
793
795
785
790
787
790
788
796
792
788
783
789
785
787
785
789
792
782
789
788
788
785
782
786
789
788
796
790
785
785
782
785
787
783
791
790
787
792
789
793
790
792
786
787
786
786
781
793
791
790
785
789
791
792
788
795
794
800
797
794
794
796
792
787
789
786
788
779
782
785
788
783
796
794
792
779
786
782
807
824
850
868
886
903
909
928
924
938
924
915
912
913
901
887
875
869
849
836
830
822
816
816
817
811
805
808
803
798
788
791
793
791
796
797
793
790
788
787
794
787
787
779
787
787
788
790
785
782
781
782
779
784
782
785
782
792
785
788
789
793
792
795
792
792
791
790
793
789
786
780
785
784
786
792
791
790
793
789
791
788
796
789
789
784
787
784
790
793
789
786
783
787
786
788
791
787
781
786
791
788
788
790
793
789
787
788
784
786
785
788
790
794
797
787
783
779
783
785
791
790
791
793
788
784
793
793
796
791
794
790
797
794
792
791
788
795
810
822
840
860
876
884
884
902
908
906
895
897
897
896
885
870
865
850
833
826
813
800
798
798
796
794
789
781
786
788
796
789
796
793
790
791
785
781
776
782
774
782
776
781
784
782
778
781
776
774
772
776
774
775
777
779
781
783
779
782
776
784
781
779
779
771
773
772
774
775
777
778
777
769
769
768
766
772
776
773
772
771
774
770
780
787
781
782
772
769
773
770
768
767
765
765
765
782
778
783
779
772
767
772
772
770
771
777
771
767
767
770
771
783
780
781
777
770
776
774
786
800
824
839
862
884
901
911
917
912
910
898
888
885
886
885
867
855
834
821
804
803
793
784
777
782
777
782
778
781
775
778
785
786
783
775
776
770
779
771
777
779
775
769
775
764
767
768
774
766
766
771
768
775
770
772
769
774
776
774
775
777
770
774
768
780
772
775
768
770
767
765
769
774
780
779
781
776
780
779
778
769
768
770
778
782
781
771
775
767
772
773
776
765
769
775
771
776
775
777
770
775
770
774
775
781
776
774
779
786
779
781
777
780
774
774
772
768
763
760
758
763
773
767
769
766
775
770
770
766
772
766
773
773
779
772
779
781
773
772
771
767
764
765
768
768
773
780
777
777
768
774
776
782
783
781
777
772
778
780
776
773
775
775
773
770
774
769
766
761
764
773
771
769
780
778
777
770
765
769
774
771
767
770
767
771
769
773
774
766
765
768
767
770
770
774
771
771
772
778
772
771
774
771
770
780
775
767
763
761
763
765
767
765
766
763
766
760
768
765
776
774
771
768
768
764
770
768
765
763
761
768
767
768
765
769
769
773
773
773
770
771
762
758
757
761
765
764
762
760
764
760
765
760
774
775
774
769
773
770
774
771
777
771
774
773
770
776
768
769
764
771
768
768
766
769
765
767
765
764
771
770
765
766
771
770
771
770
771
771
767
765
766
766
762
761
762
756
758
764
768
762
768
761
765
760
761
762
759
759
766
766
763
761
763
767
760
765
762
763
767
769
766
772
768
773
765
771
768
770
762
766
763
763
765
767
765
767
769
763
758
756
762
763
766
760
767
762
763
757
763
761
763
766
766
768
767
760
764
769
774
770
767
763
764
773
775
781
792
839
863
876
890
894
899
903
906
902
892
886
883
869
858
839
827
810
809
798
794
791
790
785
782
782
781
776
781
779
773
777
773
772
772
776
776
779
773
776
771
772
770
773
766
774
769
773
775
771
772
779
774
772
770
770
775
781
779
777
780
776
784
776
778
777
775
767
767
763
769
766
767
768
767
774
767
770
768
767
771
780
772
770
771
773
764
767
762
765
766
772
764
770
773
773
776
768
772
772
779
778
781
776
779
772
782
780
782
788
787
789
783
782
786
782
783
782
782
782
780
781
776
802
813
855
870
915
922
927
922
920
920
920
922
922
921
916
915
905
900
879
868
845
836
828
822
818
814
811
805
806
802
798
794
795
795
797
792
790
779
775
778
780
788
789
787
790
784
788
788
795
788
790
792
789
790
788
787
788
784
775
782
791
792
791
793
783
792
786
793
792
788
784
784
776
782
777
781
781
780
785
778
778
780
787
783
784
782
780
781
778
778
787
786
784
786
787
790
785
793
794
787
778
787
783
789
785
783
786
785
785
784
781
784
776
786
779
779
780
783
780
787
787
784
777
780
785
782
789
787
792
787
792
789
789
780
786
786
786
784
789
791
786
787
781
783
791
790
790
792
795
796
798
799
798
802
797
796
795
797
795
795
797
795
795
792
790
792
795
789
789
783
785
786
784
781
789
780
781
782
781
772
778
779
780
782
778
781
777
780
781
777
781
783
778
787
782
792
788
787
784
786
787
789
792
786
788
785
791
790
788
783
784
785
788
789
789
785
789
789
789
790
785
788
786
795
785
790
785
783
783
787
782
784
782
788
782
787
789
787
784
782
780
782
779
776
777
779
782
779
780
779
780
781
786
786
783
780
788
778
780
778
783
784
784
787
782
780
780
784
779
780
782
780
778
785
777
780
779
787
781
780
780
778
783
786
788
789
785
786
781
782
786
779
779
778
787
776
782
780
784
775
782
777
781
787
784
782
782
784
781
775
774
773
771
778
768
779
775
782
782
781
768
773
783
784
781
784
775
776
772
766
767
777
779
774
776
772
778
774
775
780
785
777
783
775
779
774
776
777
781
780
778
778
774
777
776
773
769
770
779
783
783
782
774
