612
624
619
617
614
620
612
612
613
617
614
614
608
608
606
603
606
606
609
611
613
613
617
620
624
627
633
637
645
651
655
653
660
663
665
664
670
672
672
673
674
675
673
673
675
671
675
676
676
678
678
678
672
677
668
678
672
678
675
678
679
675
677
673
678
676
681
679
676
673
677
675
672
670
676
673
671
672
676
675
676
678
677
674
676
677
675
672
671
672
670
669
669
673
670
675
671
672
671
677
674
672
669
667
668
667
668
669
673
671
673
673
672
669
668
664
665
664
670
670
674
673
672
672
675
673
669
672
678
677
675
675
674
673
669
677
675
675
674
679
674
676
676
686
687
683
685
685
686
689
688
690
691
685
688
680
683
683
690
684
687
685
690
690
688
687
690
684
687
681
678
681
678
678
678
675
676
675
675
678
677
682
681
688
677
686
681
684
676
676
673
671
674
674
671
673
674
673
675
679
687
689
692
698
707
713
727
725
734
742
745
758
751
744
734
721
716
704
698
693
694
700
694
704
705
704
699
701
697
699
698
702
704
709
710
709
704
701
705
699
697
699
703
695
690
689
694
693
699
697
703
699
702
695
693
696
700
696
700
697
692
695
697
691
694
700
694
704
697
698
693
708
700
698
693
696
695
695
700
698
699
697
698
696
700
693
696
697
696
697
693
690
692
694
699
694
696
694
699
692
695
692
694
699
699
694
694
696
694
697
700
699
695
695
690
694
691
692
688
693
691
695
700
702
707
711
709
698
700
695
702
705
700
697
694
691
690
691
696
690
690
692
697
690
693
694
693
692
696
692
709
728
740
739
735
740
749
751
758
764
762
755
746
739
726
717
711
711
710
711
720
717
719
723
724
718
712
708
719
712
710
713
716
711
715
712
715
708
713
709
709
708
710
704
702
699
703
705
708
704
706
713
714
713
706
709
707
708
712
714
708
708
708
710
716
720
712
706
713
718
718
717
717
716
719
718
724
720
717
711
714
714
718
716
709
712
710
711
707
706
706
713
706
708
705
711
712
709
708
712
711
713
708
709
710
710
710
714
710
707
707
706
709
707
712
708
711
712
712
710
709
707
708
702
702
703
700
700
703
709
702
703
702
700
700
700
705
705
701
701
706
705
704
705
700
705
695
701
700
703
701
701
696
699
701
697
703
703
704
702
701
704
710
706
705
699
705
699
700
700
697
701
706
703
703
710
708
704
706
712
706
708
704
708
702
705
697
708
697
699
698
698
695
699
701
704
705
705
701
702
706
706
707
709
704
695
703
702
707
701
712
705
709
707
707
704
707
708
708
713
725
737
747
754
762
770
772
780
772
772
767
767
762
765
756
754
745
744
743
730
735
726
721
719
717
720
728
722
730
723
724
720
724
716
718
711
710
708
712
710
716
714
714
722
721
719
716
720
716
723
719
722
718
730
726
726
723
725
719
721
714
720
723
722
716
712
719
711
717
718
724
721
720
722
717
717
721
719
717
711
716
708
710
715
720
716
717
711
710
709
710
720
715
714
716
720
720
721
721
718
712
714
717
715
721
723
724
716
714
713
710
714
716
718
723
725
726
720
720
718
721
715
717
712
715
706
711
713
711
717
720
717
719
719
719
714
717
717
715
716
720
724
716
715
713
713
714
718
719
718
708
712
714
717
719
714
717
715
718
720
726
737
753
756
775
781
788
790
790
784
784
786
787
780
780
776
775
768
759
752
748
742
735
744
739
737
740
740
731
724
726
726
721
721
722
722
723
720
722
720
724
724
724
724
733
729
731
728
727
718
718
719
722
718
721
721
731
729
731
725
724
722
720
724
719
729
725
731
720
725
717
722
726
723
725
722
727
728
726
727
728
728
730
735
732
727
722
720
725
717
722
713
719
717
721
719
723
725
725
718
724
728
721
718
716
717
716
721
724
723
713
715
714
722
719
720
720
724
721
727
724
719
718
716
713
712
711
716
716
716
718
719
718
716
723
716
721
716
718
714
713
716
716
720
717
720
717
721
723
725
721
727
720
730
724
728
722
721
718
723
720
722
721
724
720
724
726
725
718
721
722
717
722
721
721
718
718
717
723
718
718
709
716
719
720
719
721
712
710
713
709
713
715
716
710
712
714
719
717
719
718
729
741
757
768
780
788
796
801
801
800
796
796
800
803
799
788
777
769
752
740
726
723
711
710
707
702
703
699
696
694
698
699
699
701
701
697
700
702
706
702
707
704
703
701
700
696
694
692
698
700
700
703
699
700
698
697
692
694
693
697
693
697
691
698
694
696
692
698
695
695
697
698
701
694
689
694
695
700
699
693
699
701
705
706
701
697
697
690
692
690
695
695
695
694
694
692
691
687
690
694
688
693
690
700
700
704
695
699
695
698
697
699
701
704
702
697
697
693
690
693
698
700
703
699
699
697
703
700
703
700
703
699
697
698
698
694
689
698
693
693
695
697
697
695
694
695
692
693
690
693
689
696
697
693
698
697
696
701
704
696
689
690
693
692
698
696
701
694
697
695
696
694
701
694
691
691
698
697
697
702
708
720
737
755
765
776
788
800
800
801
798
797
786
790
778
764
755
744
733
718
713
704
692
699
699
695
696
696
696
693
696
696
698
692
698
691
687
687
693
691
691
695
693
688
686
685
683
686
686
691
691
691
688
696
694
697
692
692
686
690
691
687
694
690
688
690
696
691
695
689
695
690
692
688
696
692
688
682
681
680
687
686
683
690
684
687
684
684
686
691
693
691
691
695
692
698
696
697
694
691
687
686
691
690
689
685
686
684
688
685
685
679
681
684
687
683
687
685
683
677
686
683
686
687
686
686
682
684
684
686
680
684
677
681
681
687
684
686
687
682
679
679
681
680
681
688
689
689
688
687
689
685
691
686
686
685
689
684
687
690
690
690
692
688
692
697
694
691
688
692
687
685
685
690
690
690
691
693
689
691
686
691
682
693
686
693
693
692
694
694
693
693
693
693
700
697
698
697
699
695
701
696
692
691
689
684
687
690
690
690
690
691
690
690
685
694
692
690
694
690
689
694
691
702
697
696
696
694
697
698
692
690
696
698
695
692
696
694
691
698
699
692
694
687
693
688
693
697
697
695
690
694
690
688
691
696
699
702
697
698
694
696
699
700
701
699
694
691
691
690
691
694
695
693
693
694
689
688
691
690
688
687
695
691
697
694
696
687
692
685
690
693
686
685
690
694
690
690
686
690
689
685
694
703
699
704
696
699
691
695
689
693
696
696
697
695
697
696
694
696
699
691
696
691
697
698
698
693
696
693
688
687
691
690
691
693
695
694
693
696
698
698
699
696
695
700
692
700
698
698
704
712
717
726
730
727
733
729
729
727
730
735
744
745
736
734
739
730
736
730
731
731
728
726
721
715
706
701
697
698
698
703
702
703
693
697
692
701
696
701
698
697
699
704
703
702
700
707
705
700
698
693
702
696
700
698
701
701
712
707
709
705
706
698
702
703
705
708
704
700
702
703
700
705
700
698
695
697
697
696
692
696
693
702
699
699
702
697
703
701
700
700
699
695
700
697
703
696
700
699
701
701
699
696
698
698
697
694
695
700
697
698
695
700
700
699
702
705
707
708
710
711
709
705
703
700
702
700
700
700
702
699
701
695
695
694
696
695
693
690
688
688
702
702
699
695
691
691
694
701
697
698
697
700
699
700
698
699
705
706
696
696
694
702
691
696
689
693
698
714
707
705
702
701
709
717
723
722
734
730
735
739
746
741
744
739
741
740
743
741
743
743
732
736
736
732
734
736
729
726
723
722
712
717
712
714
712
711
706
703
702
704
702
701
707
702
694
691
692
690
694
694
695
693
695
699
699
697
700
699
699
694
696
699
703
699
703
702
701
697
695
697
695
695
691
701
691
698
697
693
691
695
695
692
687
688
687
688
694
689
692
692
696
692
694
692
694
693
693
688
688
694
699
697
700
698
694
693
692
701
695
695
691
696
695
696
697
700
697
698
692
695
694
697
696
693
686
688
698
695
701
695
700
700
700
696
696
688
689
688
686
684
680
685
690
690
690
689
685
687
689
686
682
686
682
685
683
695
692
697
690
687
688
685
693
685
683
685
685
684
686
682
687
684
686
681
682
679
689
687
683
679
680
681
692
685
683
682
682
684
679
679
678
681
682
693
684
682
685
683
678
680
680
687
685
693
694
692
689
690
694
694
697
693
695
694
693
696
700
695
696
689
689
687
689
688
687
689
695
693
685
681
679
682
685
694
695
691
688
694
689
689
686
683
680
678
678
682
683
682
683
678
682
680
683
679
688
682
680
677
682
676
679
675
681
686
689
684
682
682
683
684
687
690
687
685
692
688
689
688
687
686
685
690
686
689
690
688
681
685
698
687
684
685
696
688
689
690
687
683
684
681
689
681
687
680
683
683
679
681
682
686
687
687
686
689
685
687
684
691
689
695
687
685
690
692
685
687
691
689
686
686
688
682
680
678
680
679
681
684
689
684
690
689
686
686
686
683
684
686
684
686
687
687
684
682
677
676
676
677
674
680
680
685
683
682
677
679
685
