190
195
191
195
193
194
194
191
194
190
194
190
196
191
197
192
196
191
195
191
196
191
196
193
196
194
195
195
192
195
191
196
191
197
192
197
192
196
190
195
191
195
191
196
191
194
193
194
194
191
196
190
197
191
196
192
195
197
203
198
212
229
250
288
278
261
260
256
231
221
222
215
204
202
196
199
197
196
190
186
185
196
196
197
188
188
180
184
180
181
178
176
180
179
178
175
179
175
180
180
181
175
177
172
182
176
180
178
182
180
181
186
184
187
182
190
185
189
184
188
184
189
184
189
185
189
186
191
188
193
192
191
192
189
192
188
192
186
192
186
193
187
192
187
191
187
193
190
194
190
193
190
191
192
190
192
189
195
190
196
191
196
190
195
189
193
188
193
189
194
190
194
193
193
194
192
196
192
196
190
196
190
195
190
194
189
192
188
193
189
194
191
194
192
192
194
191
195
191
194
189
194
190
195
190
194
189
193
190
195
191
196
192
195
193
193
194
192
195
190
195
191
197
191
197
191
197
191
195
192
198
193
199
195
194
193
191
197
201
197
205
222
267
279
275
325
323
276
250
256
241
237
230
232
207
207
195
187
183
179
179
169
172
166
170
162
165
159
166
161
165
161
163
162
166
165
169
168
168
169
167
170
168
171
166
171
167
174
172
176
171
175
169
174
171
176
172
176
176
176
176
175
178
176
180
177
183
177
183
176
180
177
181
177
181
177
182
178
182
180
182
182
180
183
179
182
177
184
178
184
180
185
180
185
179
185
180
186
182
184
182
183
184
181
184
180
185
179
186
180
185
179
185
179
184
179
184
179
185
181
184
182
184
183
182
184
180
185
180
185
179
186
180
185
179
184
179
185
181
185
182
186
184
184
184
182
184
182
186
180
186
181
187
181
186
181
185
180
185
181
185
181
182
181
185
184
196
199
203
192
214
247
231
268
262
249
278
276
264
256
259
260
288
280
264
244
249
233
237
228
222
216
219
212
218
208
210
202
204
197
196
189
196
192
194
190
192
190
191
192
188
193
192
198
191
194
190
196
190
195
193
198
192
197
193
197
194
195
195
194
195
191
196
192
197
191
196
190
195
192
197
193
198
194
200
195
200
197
202
199
198
199
194
198
194
199
194
200
195
201
196
200
196
201
196
200
195
200
196
199
197
198
199
196
199
195
200
194
201
195
201
196
200
194
198
193
201
196
201
196
199
196
197
197
195
198
195
200
195
201
195
202
196
202
196
199
194
199
194
199
197
200
197
198
197
195
198
194
199
195
202
196
202
197
201
196
201
196
200
196
200
194
199
195
198
197
198
200
196
200
196
201
195
201
198
205
199
206
208
210
204
206
207
228
233
243
248
257
230
224
250
260
275
252
238
237
246
238
263
267
278
265
243
241
244
251
250
244
243
240
232
237
226
229
219
222
216
219
212
217
209
214
208
214
207
213
207
210
208
209
208
202
206
202
206
200
207
199
206
202
207
201
205
198
204
201
206
201
206
203
205
204
203
204
201
205
200
207
201
207
201
207
201
205
199
205
201
206
202
207
204
206
205
204
205
203
205
200
208
202
207
202
208
202
207
201
205
201
205
201
206
202
206
204
203
205
202
205
201
205
199
205
202
208
202
207
201
206
200
205
200
206
201
207
204
204
204
202
204
200
205
200
208
206
217
215
215
212
221
213
214
212
214
209
216
220
211
222
223
218
217
227
222
234
227
236
232
237
229
234
226
232
228
234
231
236
232
240
237
239
242
243
243
236
235
233
239
225
226
215
217
211
214
207
211
207
210
205
209
205
206
206
204
207
202
208
201
208
203
209
203
208
202
207
202
207
201
207
203
208
204
206
205
204
206
203
207
203
207
201
208
202
207
202
207
202
208
202
209
203
206
203
207
204
204
206
202
205
201
205
200
207
201
206
200
206
201
205
199
203
199
205
200
204
202
203
202
201
203
199
205
201
204
200
206
201
205
200
204
198
202
198
203
199
205
201
204
203
203
204
202
206
201
206
201
208
203
208
202
205
200
206
201
202
197
205
207
207
205
206
205
202
213
206
217
213
219
228
223
219
224
222
235
233
235
224
229
223
227
224
234
230
226
228
224
229
221
228
225
232
227
233
228
233
224
226
224
228
220
222
218
225
222
221
221
219
221
215
220
213
219
212
218
212
217
211
214
209
215
210
213
209
215
211
214
213
212
215
213
216
211
217
211
218
212
217
212
216
210
214
212
216
210
215
213
216
213
214
214
211
215
210
217
210
217
211
217
211
217
211
217
210
214
209
216
211
215
211
212
211
210
212
208
213
208
215
209
215
210
216
210
215
211
216
210
214
209
214
211
215
212
212
213
211
214
210
215
208
215
210
216
210
214
209
213
208
214
208
214
210
214
213
214
213
211
213
209
214
209
216
209
215
210
216
208
214
208
214
209
214
209
214
210
213
211
211
212
209
213
208
214
207
214
209
216
209
214
208
213
207
211
207
212
208
212
210
210
212
208
210
207
213
207
214
208
214
209
213
208
213
207
212
207
212
207
212
209
213
212
211
212
209
212
208
212
207
214
208
213
207
212
207
211
206
211
207
212
208
212
210
211
212
209
213
207
213
207
213
207
213
208
214
208
213
207
213
208
214
209
213
209
211
210
210
212
209
212
207
213
207
213
206
211
204
209
204
209
205
209
205
210
207
210
209
209
211
208
212
207
213
206
213
207
212
207
212
206
211
205
210
206
211
208
212
210
212
211
207
215
203
199
192
198
194
203
209
210
202
212
199
213
207
212
205
204
200
204
204
208
209
209
206
208
206
197
199
194
201
193
196
190
192
186
191
188
190
189
190
188
186
187
184
186
182
188
184
189
185
190
188
191
186
191
186
190
187
193
190
193
191
191
192
190
193
191
195
190
196
190
195
189
194
189
194
190
195
192
196
194
196
193
195
193
192
194
190
195
189
195
189
195
190
195
189
192
188
191
187
193
188
193
188
192
190
190
192
189
193
188
193
187
193
190
194
190
193
188
192
188
193
190
194
191
195
192
193
193
190
193
190
196
190
196
190
195
191
195
190
194
190
194
191
197
192
195
193
193
193
192
194
191
195
190
195
189
195
189
194
190
194
189
193
188
193
189
193
190
192
192
191
193
190
192
189
194
189
195
189
194
187
192
187
192
187
193
190
193
191
194
192
191
193
190
193
190
193
188
194
188
194
189
193
188
193
190
194
190
195
191
195
192
194
193
191
190
191
197
196
199
205
203
200
210
212
213
230
224
212
209
206
201
199
202
206
197
197
200
220
206
224
213
207
205
200
190
191
185
187
181
185
181
185
183
183
182
181
184
179
183
179
186
181
186
182
188
182
186
181
187
185
190
187
190
187
188
188
187
189
186
191
185
190
185
190
185
190
185
190
185
189
185
189
186
191
188
190
189
188
190
186
190
185
191
186
192
187
191
186
191
187
191
187
192
188
193
190
193
191
191
192
188
190
188
194
189
194
188
193
188
193
188
191
187
192
188
192
190
193
191
190
192
188
192
188
194
189
194
188
194
189
193
188
192
187
193
188
192
189
192
190
190
192
189
192
188
192
188
193
188
193
188
192
188
192
188
193
189
193
189
192
192
192
193
192
198
189
191
192
191
186
189
187
191
192
199
202
200
206
223
221
218
217
215
211
210
215
216
208
211
210
200
200
195
198
190
193
189
191
186
189
185
188
186
184
185
182
183
180
187
180
185
180
184
179
183
179
184
179
183
179
184
180
184
182
183
183
182
184
181
185
180
186
181
186
180
185
181
185
180
185
181
184
182
185
184
183
184
181
184
180
185
179
185
180
186
180
184
179
184
179
184
180
185
182
184
183
183
184
182
185
181
187
182
187
182
187
182
186
180
185
181
186
183
188
183
185
184
183
185
182
186
182
186
182
187
182
187
182
186
181
186
182
187
183
188
184
186
185
184
185
183
186
182
187
182
187
182
187
182
187
181
186
182
187
183
187
184
186
185
184
185
182
186
182
189
183
188
182
188
183
187
182
185
183
186
184
188
185
186
186
185
187
184
187
183
189
182
187
183
187
182
187
182
187
183
187
183
187
185
187
186
184
188
184
189
184
190
184
189
183
187
181
186
182
186
182
189
185
188
186
187
187
186
188
184
190
184
190
183
189
184
187
182
187
183
188
183
188
185
188
186
187
187
185
187
184
188
182
188
183
189
183
188
183
186
182
188
184
189
186
188
187
187
188
185
189
185
191
186
191
185
191
185
190
185
190
185
190
187
191
187
189
189
187
189
187
190
185
190
186
192
187
191
186
191
185
190
186
190
185
191
188
190
189
188
190
186
189
185
191
185
190
186
190
185
190
185
190
187
191
187
191
189
190
190
188
190
185
189
185
191
185
191
185
190
185
190
185
190
186
191
187
189
187
187
188
183
186
183
187
182
187
182
187
181
186
180
184
180
186
183
188
185
188
187
186
188
184
188
183
189
183
189
184
188
184
189
182
188
184
189
185
189
187
189
188
186
186
183
188
183
190
184
190
185
190
185
188
183
188
