451
447
453
449
449
450
455
451
451
451
445
443
443
447
447
448
448
446
450
452
449
446
444
446
450
452
456
456
452
453
452
450
443
440
439
438
437
434
431
429
431
429
432
432
435
445
446
443
453
451
454
454
451
448
447
447
444
446
445
445
445
447
440
445
446
447
448
448
445
448
445
447
448
448
450
445
446
446
451
451
448
448
448
445
445
447
443
445
442
439
448
447
449
447
450
446
444
441
441
442
441
447
448
452
449
447
444
446
446
446
445
450
449
452
452
455
453
451
450
450
448
450
451
450
452
454
451
448
451
445
445
443
447
447
449
448
453
452
451
446
445
448
444
450
449
450
449
451
448
449
448
452
448
450
448
450
448
454
454
455
454
454
455
458
457
458
461
456
457
457
455
454
457
455
458
456
461
458
463
474
465
469
462
467
463
459
456
452
453
446
427
430
423
421
414
416
405
396
392
386
386
392
397
404
404
411
408
410
419
427
431
431
434
439
439
438
438
439
442
439
441
438
440
441
440
441
439
438
440
438
443
442
441
446
443
439
441
447
443
445
439
443
443
447
446
453
449
450
450
450
448
450
450
452
446
444
441
439
445
443
447
444
450
450
450
448
444
438
441
440
436
437
443
446
443
442
447
446
444
444
444
447
442
440
439
439
435
436
437
444
445
446
448
447
444
442
446
448
447
446
444
444
448
447
454
450
452
445
447
449
447
450
444
444
445
441
443
444
447
451
447
445
441
448
445
444
442
447
445
449
447
447
452
454
451
449
449
454
452
446
450
450
450
445
448
449
450
450
452
450
452
451
453
450
446
449
446
445
446
447
446
446
444
446
446
447
446
447
450
450
450
454
453
455
452
449
448
447
446
449
449
453
451
451
455
451
448
447
446
447
446
443
448
445
452
452
452
451
448
447
445
446
449
449
447
449
450
446
447
445
445
451
443
446
444
450
447
448
447
448
449
449
449
450
451
453
456
455
449
450
451
446
448
440
442
439
435
433
434
425
429
428
424
423
416
405
398
397
390
388
382
381
377
380
380
383
386
396
402
412
415
417
418
425
428
430
436
442
445
444
449
450
447
444
448
443
445
441
442
441
450
449
448
444
447
442
441
445
445
443
447
449
449
445
439
439
439
444
445
447
446
445
444
444
446
445
444
444
445
442
442
440
445
448
446
442
441
442
443
443
440
438
442
440
448
445
445
439
437
439
438
438
440
443
438
440
442
441
441
444
441
444
441
442
438
440
440
441
438
435
439
438
435
437
437
435
433
433
435
431
436
433
437
436
438
438
441
440
440
438
439
438
442
442
440
437
435
435
437
438
436
434
434
436
431
433
437
437
435
439
443
439
443
439
440
440
442
442
439
437
438
438
444
439
446
443
444
442
446
444
447
446
443
441
441
440
440
444
442
441
440
441
437
437
439
439
440
442
439
444
444
448
447
449
442
441
442
440
437
441
440
442
446
445
442
436
440
439
439
440
439
438
440
437
442
440
440
440
440
442
439
438
434
435
436
435
437
441
434
436
435
437
434
438
435
442
438
434
436
437
436
438
439
438
439
438
440
437
438
438
439
436
438
437
440
440
443
445
448
446
444
444
440
439
438
435
434
435
436
437
434
435
437
441
439
437
439
440
440
438
436
435
435
440
442
445
454
463
465
467
473
473
478
478
485
484
484
491
496
494
499
503
504
503
500
496
497
497
497
496
492
491
492
484
477
469
459
457
452
450
443
444
437
435
431
428
426
425
429
428
430
430
432
428
427
427
433
428
428
428
430
433
433
433
432
430
429
428
428
432
431
433
431
436
436
436
433
437
435
439
436
440
437
443
441
437
441
441
436
433
436
436
436
433
438
436
432
433
437
433
434
433
436
436
441
442
440
436
433
432
435
434
430
430
432
434
432
431
435
436
433
436
433
435
433
437
436
438
439
438
438
435
435
435
438
434
436
432
429
428
432
430
432
435
441
443
444
443
442
445
442
444
441
442
440
442
438
441
439
435
436
439
439
446
443
442
442
442
437
438
439
437
440
439
440
440
441
439
438
438
438
437
440
435
439
439
439
442
443
442
444
444
444
442
440
443
440
444
440
439
440
444
444
441
440
439
438
438
439
439
441
441
439
438
438
439
439
437
440
443
445
440
444
441
445
446
444
440
441
443
448
445
446
448
446
442
439
442
436
439
441
440
439
444
441
446
441
446
445
442
440
443
446
441
441
444
442
441
441
440
444
445
443
440
440
439
440
440
443
442
440
437
441
440
444
440
438
436
435
434
438
438
439
441
437
437
441
440
439
444
442
439
435
438
438
444
445
443
444
445
443
446
450
462
467
469
474
481
481
483
486
485
486
486
492
494
500
497
498
498
497
499
504
504
498
493
488
487
480
472
468
464
451
447
435
430
428
434
433
437
440
442
440
444
443
448
450
451
455
449
452
451
452
449
450
452
458
454
455
456
451
453
451
451
449
446
447
445
450
445
447
447
451
453
453
451
450
453
448
450
450
453
454
455
454
454
453
456
458
459
458
457
459
458
459
458
455
454
452
447
453
455
455
456
459
458
462
457
454
457
456
458
456
454
450
450
451
452
452
452
455
456
454
458
455
454
453
455
456
455
455
453
457
457
455
452
454
453
454
455
457
457
455
455
456
456
456
460
461
457
456
462
458
458
454
455
458
460
457
462
464
461
455
460
462
461
459
461
461
457
461
460
458
455
460
460
458
458
458
451
450
449
454
452
454
453
455
450
452
453
453
453
451
453
449
449
452
456
453
456
449
454
452
451
446
452
455
453
460
457
459
458
458
457
458
454
455
455
457
456
455
450
459
456
459
457
462
456
454
456
454
452
454
459
454
455
451
449
451
450
453
457
454
455
454
457
455
455
454
454
459
459
456
455
460
458
459
455
451
452
450
451
458
452
452
452
456
452
456
458
455
457
454
453
452
455
453
457
457
458
454
457
455
454
450
455
453
454
454
457
454
458
455
457
460
461
461
458
459
457
459
454
455
454
455
450
452
453
455
453
453
449
449
448
449
448
456
457
456
456
455
454
454
455
452
456
455
457
458
457
459
459
457
461
459
458
459
459
459
458
456
454
458
457
459
461
457
451
456
453
455
457
456
458
458
456
458
458
457
461
462
463
459
458
461
463
459
464
459
458
458
459
458
460
462
460
459
459
458
460
464
465
469
463
463
461
465
464
464
463
466
470
470
464
458
451
449
455
448
455
453
456
463
460
478
482
470
502
504
494
523
517
521
519
488
469
458
436
419
398
391
392
395
403
413
418
429
433
441
447
451
455
461
458
466
463
461
460
463
461
461
462
459
458
459
460
460
458
459
459
462
466
462
461
462
463
465
462
461
457
455
457
460
462
464
462
460
463
462
462
464
460
459
457
459
460
463
466
462
462
457
459
460
465
465
466
466
464
460
456
451
457
462
468
465
466
464
462
470
464
460
458
460
463
462
462
464
464
465
464
465
464
462
464
467
463
462
466
466
469
464
466
463
463
462
460
462
462
458
459
458
455
459
464
460
463
465
467
466
466
467
463
463
465
463
461
466
465
468
467
468
464
466
466
464
462
460
460
464
466
469
466
462
460
459
459
460
462
461
459
457
460
460
460
463
460
457
453
451
455
457
455
456
455
455
457
457
463
465
467
465
461
460
460
462
458
460
458
463
463
464
463
460
461
463
460
463
463
461
463
463
463
457
455
456
462
460
454
443
472
468
462
464
487
481
481
476
488
477
472
482
491
486
484
477
464
454
435
426
411
406
408
414
422
429
437
440
444
449
451
455
456
460
463
461
463
461
458
456
458
458
460
457
464
463
462
460
462
461
459
457
458
465
468
468
468
472
468
464
465
462
462
463
460
457
459
460
458
457
457
458
453
455
453
452
458
454
454
457
463
458
462
460
465
462
462
464
460
463
464
465
466
464
464
462
458
456
456
454
459
462
460
463
463
467
464
466
467
463
464
467
461
463
463
463
461
457
460
460
462
460
459
456
460
457
462
462
459
456
459
463
458
459
458
461
462
462
460
462
460
460
462
463
458
459
459
464
467
469
471
467
465
464
466
461
462
464
465
467
468
466
464
462
466
464
466
460
463
460
465
466
460
462
460
460
466
466
467
466
466
466
464
466
465
464
461
460
460
464
469
479
488
492
492
489
488
491
497
497
502
501
505
499
494
486
483
481
478
470
467
459
458
464
465
462
463
467
467
469
464
465
468
470
469
467
462
463
461
467
466
472
472
474
473
474
471
466
467
468
469
468
471
468
470
470
471
469
468
467
466
463
468
463
464
469
470
471
473
466
465
464
467
468
467
464
469
465
463
463
461
463
461
460
461
465
469
469
466
464
464
465
465
466
463
466
465
465
462
460
465
463
467
463
461
462
466
468
470
470
470
473
471
470
467
467
465
469
470
478
475
474
478
478
478
484
485
489
487
492
493
495
494
494
494
494
497
501
495
493
501
495
493
486
483
478
477
472
469
470
476
487
491
493
489
483
480
479
479
476
473
472
476
477
480
481
474
484
482
485
484
