232
244
250
246
252
248
254
249
255
250
255
251
255
251
255
252
255
252
253
254
252
254
251
256
253
260
256
261
256
262
256
260
255
260
252
255
247
250
247
249
249
249
251
247
251
247
252
250
258
256
264
259
264
256
262
257
261
254
257
253
257
254
258
259
257
260
256
262
258
263
257
265
261
266
261
267
260
265
258
263
256
262
257
261
261
262
262
260
266
265
279
297
318
314
331
334
333
327
321
304
300
291
282
273
273
266
266
263
259
255
247
248
239
244
244
256
255
268
268
270
263
264
256
260
255
262
258
262
260
261
260
257
259
254
259
256
263
259
267
262
268
262
267
262
265
258
260
253
256
254
258
257
258
259
255
258
255
259
257
260
258
264
260
265
260
264
259
263
258
262
257
259
256
257
256
255
257
253
257
254
259
255
261
258
265
258
265
259
263
258
262
256
259
256
257
256
257
258
255
257
249
256
253
259
257
280
281
295
289
291
284
298
284
291
281
284
289
296
288
287
276
265
268
259
258
247
250
242
247
244
251
245
248
241
244
238
241
236
239
238
241
242
240
242
239
243
238
244
240
248
243
251
245
250
244
248
243
248
242
245
240
242
240
240
241
238
241
237
243
238
244
240
247
242
249
243
247
241
244
238
242
237
240
237
240
240
238
240
236
241
236
243
243
249
243
249
243
248
242
246
240
243
237
240
237
239
237
237
238
235
239
235
240
236
242
238
244
240
245
239
244
239
244
238
243
238
243
244
244
242
241
242
240
243
239
245
241
248
243
250
244
252
275
282
282
290
313
326
321
349
333
308
284
267
256
244
242
233
235
229
236
237
252
253
266
262
268
262
270
266
274
270
273
268
265
265
262
264
260
267
265
272
269
275
269
273
267
269
262
267
263
267
262
266
263
265
265
263
264
261
265
262
268
264
271
267
273
267
271
264
266
260
264
260
266
261
266
264
264
263
260
261
256
262
259
266
263
270
267
272
268
273
268
273
267
268
263
265
261
263
263
263
264
262
264
261
267
265
269
266
272
267
273
267
271
266
269
263
267
262
266
262
265
272
286
302
312
328
353
349
333
327
309
305
289
286
273
272
263
262
257
267
264
269
268
267
266
262
266
265
270
267
273
268
275
269
275
267
273
269
272
266
270
266
270
267
267
264
263
265
262
266
263
269
266
273
269
275
269
275
268
273
267
273
267
271
266
267
266
266
266
264
267
264
270
266
272
268
274
269
274
268
272
266
270
266
270
265
269
264
267
265
265
266
263
266
260
267
263
270
264
271
266
272
268
274
269
274
269
273
267
270
267
268
268
266
267
263
266
264
271
268
274
270
277
271
276
271
275
268
273
266
270
265
267
265
265
266
263
267
266
271
267
272
271
281
280
292
290
297
292
295
290
295
293
295
290
291
285
280
282
278
283
278
284
277
281
275
277
270
273
269
273
268
273
269
274
270
270
267
266
265
261
264
259
265
263
271
268
273
268
273
267
273
267
272
266
270
264
266
263
267
264
262
262
261
266
263
268
267
274
270
275
270
274
269
275
270
276
271
274
274
280
280
279
280
279
284
275
281
277
280
274
280
272
280
272
279
274
280
276
277
270
274
271
272
270
270
272
267
268
265
271
268
276
272
277
272
276
272
277
272
276
268
271
265
267
263
266
266
264
267
264
268
264
272
267
274
273
278
273
278
272
277
272
276
271
274
269
272
268
271
271
270
277
278
278
268
273
270
282
275
281
275
279
272
277
273
277
268
269
263
264
261
259
261
257
259
255
258
254
260
256
263
258
263
257
262
256
261
256
261
258
261
257
259
259
256
259
254
257
254
262
259
266
261
269
262
267
262
266
261
263
256
259
254
256
253
253
254
251
254
253
259
257
262
257
263
260
265
259
264
257
262
259
263
258
262
258
259
259
260
261
257
260
256
262
257
263
258
265
261
266
261
266
261
265
260
263
257
261
258
259
257
256
257
255
260
257
263
259
266
263
271
267
279
281
277
272
272
263
263
258
260
259
256
257
250
249
243
249
251
258
255
260
253
258
252
253
247
248
241
243
237
240
237
240
239
239
240
237
239
236
240
237
244
240
245
240
244
239
243
239
242
237
241
237
239
236
236
236
234
236
233
238
235
240
237
244
240
246
240
245
242
246
240
243
238
240
236
237
236
236
237
235
238
235
240
237
242
238
244
239
243
238
241
236
240
237
240
236
238
236
236
235
234
237
236
242
240
255
281
320
369
407
442
464
578
630
552
533
496
487
484
426
361
325
300
285
275
269
269
265
267
262
267
263
270
263
270
264
269
263
266
259
262
258
259
258
259
261
258
261
257
262
259
265
262
269
262
267
261
266
260
263
257
261
257
260
258
259
259
257
258
255
260
257
262
258
263
259
265
259
261
257
260
254
258
254
258
255
258
256
255
255
253
256
252
256
253
261
258
266
261
266
260
262
256
267
277
349
421
415
465
503
561
610
611
534
533
522
501
466
433
366
330
296
279
263
258
246
244
238
241
239
242
241
243
245
245
247
245
250
246
250
247
254
250
258
253
257
251
253
248
252
248
252
249
251
250
251
250
247
249
245
250
247
252
248
256
252
258
253
257
250
253
247
252
248
252
250
250
250
248
249
246
251
248
253
249
254
251
257
253
258
253
258
253
256
251
254
250
252
250
251
251
249
258
277
284
286
338
393
396
449
443
415
386
388
414
376
347
343
310
284
268
258
251
245
239
240
235
238
234
239
236
244
239
243
238
241
235
239
233
237
234
237
235
237
237
235
237
233
236
232
239
235
242
240
245
239
243
240
244
239
243
239
243
239
241
240
239
239
237
240
236
241
237
244
241
246
243
248
242
245
240
243
239
241
236
238
237
251
262
308
380
464
455
438
434
476
461
410
428
379
330
297
284
268
267
257
258
252
251
246
243
241
237
239
236
244
244
254
252
261
255
260
255
257
248
249
243
243
233
233
225
222
219
216
216
213
217
214
217
215
220
216
222
219
224
218
222
217
219
214
215
212
216
215
216
217
216
219
215
219
216
221
219
223
219
225
220
225
220
224
219
223
218
220
217
219
218
218
220
217
220
216
220
216
223
219
224
219
223
220
225
221
224
220
223
218
221
217
219
219
218
220
217
220
217
222
219
225
221
225
220
225
221
225
220
223
219
222
217
221
219
219
219
217
219
217
221
217
222
219
225
221
226
221
226
221
225
220
223
218
220
216
218
217
216
217
217
219
216
222
218
224
221
226
222
227
222
225
220
223
219
222
218
222
219
220
219
218
222
218
221
218
223
219
224
220
226
223
228
223
227
224
226
221
224
221
222
220
220
219
216
219
216
219
216
220
215
220
216
222
216
220
214
216
211
213
209
210
206
207
207
206
206
205
208
205
210
207
211
208
212
209
214
210
212
208
211
206
209
205
208
205
206
208
208
211
207
209
205
208
202
206
199
201
196
199
192
189
180
183
179
177
172
173
171
171
169
166
171
174
185
184
188
183
188
184
189
184
188
186
192
190
193
188
188
185
185
184
184
185
183
186
184
188
186
190
186
191
188
192
189
193
190
193
189
191
187
188
188
189
190
191
194
191
195
192
196
193
199
196
201
196
200
195
197
193
196
193
195
192
193
193
192
193
191
194
190
194
192
198
193
196
191
195
190
194
190
192
188
190
187
188
187
189
190
189
189
187
191
189
193
190
194
191
195
191
194
189
192
189
192
189
191
189
191
189
190
190
190
191
190
193
191
196
192
195
190
193
189
192
189
193
189
191
187
191
190
193
193
192
193
191
193
190
194
191
196
192
198
194
200
196
199
195
198
194
197
195
196
193
193
193
192
194
198
197
189
193
189
195
192
197
193
197
193
196
192
194
191
193
191
194
196
200
201
200
206
208
217
216
224
222
230
231
244
244
255
253
263
265
271
266
269
264
264
261
259
257
254
257
254
258
256
263
258
265
261
268
261
266
259
262
256
260
256
256
252
251
248
245
247
241
246
243
247
241
245
239
245
242
248
245
247
243
247
246
251
251
253
251
250
251
249
251
249
256
253
259
255
260
254
257
249
252
245
248
240
242
238
242
239
242
242
241
242
237
239
235
240
236
242
239
245
240
248
241
245
240
242
241
246
243
246
243
244
244
243
245
241
245
240
246
243
250
246
253
249
256
250
253
247
250
244
246
240
241
240
239
240
238
242
238
244
242
248
244
251
247
253
246
250
244
249
242
241
233
234
229
231
232
231
233
231
236
233
240
237
244
239
245
239
242
236
240
236
239
235
237
234
236
235
234
236
234
237
234
239
236
240
238
244
240
246
241
245
240
243
239
241
237
239
236
237
236
235
236
233
236
232
238
234
242
237
242
236
241
235
238
232
236
231
233
230
232
230
231
231
231
233
230
234
229
235
231
236
233
238
233
238
231
235
229
230
225
226
221
222
222
222
223
222
226
223
227
224
230
225
231
227
233
229
234
230
234
230
233
229
231
229
230
230
228
230
226
230
227
232
229
234
230
236
232
236
231
236
230
234
229
231
227
228
227
226
228
226
