47
48
47
48
47
48
47
48
47
47
47
47
47
47
47
47
47
47
47
47
46
46
47
47
47
47
47
46
47
46
47
47
47
47
47
47
47
47
47
47
47
47
47
47
47
47
47
47
47
47
47
47
47
47
47
47
47
47
47
47
47
47
47
47
47
47
47
47
47
47
47
48
47
47
47
47
47
47
47
47
47
47
47
47
47
47
47
47
47
47
47
47
47
47
47
47
47
47
47
47
47
47
48
48
48
47
48
47
48
47
48
47
48
47
48
47
48
47
48
47
47
47
47
47
47
47
47
47
47
47
46
47
47
47
47
47
47
48
47
48
48
48
47
48
47
47
47
47
47
47
47
47
47
47
47
47
47
47
47
47
47
47
47
47
48
47
47
47
48
47
48
47
48
47
48
47
48
47
47
47
48
48
48
48
47
47
47
47
47
47
47
47
47
47
47
47
47
47
46
47
46
47
47
47
47
47
46
47
46
47
46
47
46
47
47
47
47
47
47
47
47
47
47
47
47
47
47
47
47
46
47
47
47
47
47
47
47
47
47
47
47
47
48
47
48
47
48
48
48
48
48
48
49
48
49
49
49
49
48
48
48
48
48
48
48
48
48
48
48
48
48
48
48
48
48
48
48
48
47
47
47
48
47
48
47
48
47
48
48
48
48
48
47
48
48
48
48
48
48
49
49
49
49
48
49
49
49
49
49
48
48
48
48
48
48
47
48
47
47
47
48
47
47
47
47
47
47
47
47
47
47
47
47
47
47
47
47
47
47
47
47
48
47
47
47
47
47
48
47
48
47
48
47
47
47
47
47
48
47
48
47
48
47
47
48
48
47
48
47
47
48
48
48
48
48
47
48
48
48
48
48
47
48
47
48
48
48
48
48
48
48
48
48
48
48
48
48
48
48
48
48
48
48
48
48
48
48
48
48
48
48
48
48
48
48
48
48
48
48
48
47
48
47
48
47
48
47
48
48
48
47
48
48
48
48
48
48
48
48
48
48
48
48
48
48
48
48
48
48
48
48
48
48
48
48
48
48
48
48
48
48
48
47
47
48
47
48
48
48
48
48
48
48
48
48
48
48
48
48
48
48
48
48
48
48
48
48
48
48
48
48
48
48
48
47
48
47
48
47
48
47
48
48
48
48
48
48
48
48
48
48
48
48
48
48
48
48
48
48
48
48
48
48
48
48
48
48
47
48
47
48
47
48
48
48
47
48
47
47
47
47
47
47
47
47
47
47
47
47
48
48
48
48
48
48
49
48
48
48
48
48
48
48
48
48
48
48
48
48
48
48
48
48
48
48
48
48
48
48
48
47
47
47
47
48
47
48
47
48
47
47
47
48
47
48
47
48
47
48
47
48
47
47
47
48
47
48
48
48
48
48
48
48
47
47
48
48
48
48
48
48
48
47
48
48
48
47
48
47
48
48
48
48
48
47
48
47
48
48
48
48
48
48
48
47
48
47
47
47
48
48
47
48
48
48
48
48
48
48
48
48
48
48
48
48
48
48
48
49
49
50
49
50
52
53
56
57
67
71
79
94
97
110
111
116
116
114
127
132
133
130
123
128
126
135
136
132
135
133
136
144
141
152
147
144
136
136
136
128
128
136
130
134
133
128
125
126
128
130
129
125
130
131
133
133
129
123
117
113
120
123
123
121
119
116
127
119
114
123
119
116
120
117
109
106
100
101
98
94
93
93
89
86
82
81
78
81
81
79
77
73
72
68
67
65
65
64
63
63
63
62
60
60
59
59
58
60
59
57
56
57
56
56
56
57
58
59
59
59
57
57
59
58
56
56
56
55
55
54
55
54
52
51
51
50
51
50
50
50
51
50
50
50
49
49
49
49
49
50
50
49
50
49
50
49
49
49
49
49
49
48
49
48
48
47
48
47
47
47
47
47
46
46
46
46
46
46
46
46
46
47
46
47
46
47
47
47
47
48
47
48
48
48
47
48
48
48
48
48
47
48
47
47
47
48
47
47
46
47
47
47
47
47
46
46
46
46
46
45
46
46
46
46
47
46
47
47
48
48
48
47
48
47
48
47
48
48
48
48
48
48
48
48
48
48
48
49
48
48
48
48
48
48
47
48
47
48
47
47
47
47
47
47
47
47
47
47
47
47
46
47
46
47
46
46
46
46
47
46
46
47
47
46
47
47
48
47
47
47
47
47
48
48
48
47
48
48
48
48
48
48
48
47
48
47
48
47
47
47
47
47
48
47
47
47
47
47
47
48
47
48
47
47
47
47
47
47
47
48
47
47
47
48
47
48
47
48
47
48
47
48
48
48
47
48
47
47
47
47
47
47
47
47
47
47
47
47
47
47
47
47
48
47
48
47
48
48
48
47
48
47
48
47
48
47
48
47
47
47
47
47
47
47
47
47
48
48
48
48
47
48
47
48
47
47
47
48
48
48
47
48
47
48
47
48
47
48
47
47
46
47
46
47
47
47
47
47
47
47
48
47
47
47
48
47
48
47
48
47
47
47
48
47
48
47
48
47
48
47
48
47
48
47
47
47
47
47
47
47
47
47
47
46
47
47
47
47
47
47
47
48
47
48
47
48
48
48
47
48
47
48
47
48
47
48
47
47
47
48
48
48
47
48
48
48
52
58
63
66
70
84
82
90
106
126
121
123
119
125
137
140
137
143
138
142
143
144
136
137
135
137
143
149
148
142
140
156
156
166
161
154
153
148
156
153
146
146
140
147
162
154
146
142
141
137
129
122
117
121
123
118
116
119
120
120
115
119
120
120
118
116
122
126
119
130
139
137
132
127
129
141
139
144
136
127
120
112
105
103
102
106
99
94
89
84
80
77
75
73
73
71
68
66
64
63
63
61
62
62
63
63
60
60
58
61
60
59
58
60
60
59
58
57
56
55
55
54
54
53
51
51
51
50
49
49
49
50
50
49
49
49
49
48
48
48
48
48
48
48
49
48
48
48
49
48
49
48
49
48
49
48
48
48
48
48
48
48
48
47
47
47
46
47
46
46
47
47
47
47
47
47
47
47
46
47
47
48
48
48
48
48
48
48
48
48
48
48
48
49
48
48
48
47
47
48
47
47
47
47
47
46
47
46
47
46
46
46
46
46
46
46
46
46
46
46
46
46
46
46
46
46
47
46
46
46
46
46
46
46
46
46
46
46
46
47
47
47
46
47
46
47
47
47
47
48
47
47
47
47
47
47
47
48
47
47
47
48
48
48
47
47
47
46
46
46
46
46
46
45
46
46
46
45
46
45
46
46
46
45
46
46
46
46
47
46
47
47
47
47
47
47
47
47
47
48
48
47
47
47
47
47
47
47
46
46
46
47
46
46
46
46
46
46
46
46
46
47
46
46
47
47
47
48
47
47
47
47
47
47
46
47
46
46
46
46
46
46
46
46
46
46
46
46
46
46
46
46
46
46
46
46
46
45
46
45
46
45
46
45
46
46
46
46
46
46
46
46
46
46
46
46
46
46
45
46
45
46
45
46
46
46
46
46
46
46
46
46
46
47
46
47
46
46
46
46
46
46
46
46
45
45
46
46
46
46
46
45
46
45
46
45
45
45
46
45
46
46
46
46
46
46
46
46
46
46
47
46
46
46
46
46
46
46
47
46
47
47
47
47
47
46
46
46
46
47
46
47
46
47
46
47
46
47
47
47
47
47
47
47
47
47
47
47
47
47
47
48
47
47
47
47
46
47
47
47
46
46
46
47
47
46
46
46
46
46
46
46
46
46
47
46
46
46
46
46
46
46
46
46
46
46
46
45
45
45
46
45
45
45
45
46
46
46
45
46
45
46
46
46
46
47
46
47
46
46
46
47
46
47
46
47
46
46
46
47
47
47
47
47
47
47
46
46
47
47
47
47
47
46
47
47
47
47
48
49
49
49
50
49
50
50
51
50
50
49
49
51
53
52
52
52
53
53
54
59
61
63
62
63
65
65
64
64
69
73
76
76
86
90
93
100
109
102
107
102
108
120
119
121
120
122
123
125
127
133
136
126
123
124
120
117
115
115
113
109
104
108
105
99
99
97
92
96
94
92
91
88
91
91
88
89
86
84
89
87
86
87
89
86
84
88
87
95
101
96
91
89
91
93
99
98
95
94
88
83
83
85
87
85
84
91
91
89
86
83
79
80
79
79
79
89
91
88
97
93
93
102
98
92
91
89
88
92
95
92
88
88
84
91
97
95
93
92
92
92
89
85
87
89
93
92
88
85
85
87
99
95
94
103
103
100
97
103
109
108
104
104
107
128
128
122
119
114
111
110
108
107
103
102
102
103
95
101
104
99
93
89
84
84
84
79
80
84
81
79
78
79
78
78
81
81
80
81
84
86
83
86
87
86
82
81
79
80
87
85
83
81
85
85
82
83
84
82
83
90
89
85
81
78
79
76
79
88
84
83
83
81
79
79
78
81
82
86
83
81
83
81
81
83
82
84
85
85
84
81
78
78
77
80
91
93
87
83
84
81
79
75
77
78
75
75
76
83
82
79
77
79
79
80
79
79
79
83
85
83
83
83
80
80
80
82
86
88
102
98
93
91
86
90
89
86
86
88
91
93
94
96
93
92
87
84
85
85
89
87
87
84
86
84
84
80
80
83
80
77
75
73
77
78
80
81
81
84
84
87
84
86
86
86
85
87
89
87
85
81
78
80
82
80
79
84
85
83
84
82
89
93
89
87
86
84
89
89
85
84
86
89
87
86
84
82
84
92
91
90
87
87
90
86
85
86
96
94
93
90
95
94
91
92
88
85
84
81
79
75
75
76
73
76
77
82
97
102
102
105
105
107
116
113
111
108
102
106
100
97
93
90
92
93
92
91
94
93
90
84
82
80
87
88
91
91
92
88
86
86
82
81
80
80
85
84
82
81
77
77
77
77
86
84
85
81
78
77
77
88
95
90
90
86
83
82
79
80
82
81
78
76
76
76
77
75
76
74
74
78
79
79
84
81
79
80
80
81
81
83
84
84
81
81
78
76
76
76
78
79
76
77
75
80
78
81
82
80
81
82
83
82
80
79
79
83
80
79
77
85
90
91
86
84
87
88
84
82
82
84
82
81
84
86
87
85
83
81
82
81
83
91
95
95
101
105
105
98
96
98
94
91
96
96
100
104
104
102
98
96
94
92
96
94
92
95
97
92
92
91
91
95
104
100
98
96
92
88
84
80
87
90
88
99
98
95
91
88
91
88
91
90
91
92
89
85
85
84
83
80
84
82
79
77
78
76
87
91
92
91
87
83
80
76
74
74
78
78
80
78
77
76
72
69
70
69
71
69
68
69
67
67
66
66
66
67
67
65
64
65
64
65
63
60
65
66
69
71
68
67
66
66
64
65
68
69
68
74
73
71
70
68
69
68
71
73
69
67
67
67
67
70
75
74
72
69
66
71
67
70
75
76
80
79
76
74
72
70
69
75
76
79
79
79
76
75
72
74
77
75
72
72
71
73
74
73
76
77
78
83
83
81
80
76
76
73
72
73
76
74
75
74
79
78
78
77
76
75
73
72
75
77
78
79
77
77
75
72
70
69
69
67
65
66
64
64
63
61
61
63
61
62
61
59
58
58
58
65
66
66
67
65
63
65
66
67
69
75
74
73
77
77
76
73
72
72
71
70
68
70
68
69
66
65
64
64
68
66
65
65
64
63
61
64
65
65
62
66
68
68
69
69
70
70
71
70
71
78
78
77
72
69
65
63
63
62
62
61
64
64
62
64
69
69
67
70
75
74
74
75
72
72
70
69
67
66
73
76
75
73
71
69
68
67
64
67
72
70
72
68
68
66
66
65
63
64
64
63
62
60
58
57
57
58
64
62
62
60
59
58
59
60
64
61
63
62
61
59
59
59
59
59
57
57
57
55
56
57
56
56
56
55
55
54
53
55
54
55
55
55
53
52
53
52
51
52
51
54
53
54
54
57
56
54
54
52
51
50
50
49
49
48
48
48
48
49
48
48
47
47
47
48
47
48
48
49
49
50
50
51
50
50
49
49
48
48
47
48
48
49
49
50
49
49
48
48
48
47
47
47
48
47
48
48
47
48
47
47
48
47
47
47
47
46
46
46
46
46
47
46
47
46
47
47
47
46
47
46
46
47
47
47
47
46
46
47
47
46
46
46
46
46
47
47
46
46
46
46
46
47
46
47
46
46
47
48
47
47
46
47
46
47
46
46
48
48
48
48
48
48
48
47
47
47
47
46
46
46
46
46
47
46
46
46
47
46
46
46
46
46
47
46
46
46
46
45
46
45
46
45
45
45
45
45
45
46
45
46
47
47
46
46
46
46
45
46
45
46
45
46
45
45
46
47
46
46
46
47
47
47
47
47
46
46
46
46
46
46
46
46
46
46
46
45
45
45
45
45
45
45
45
45
45
46
46
46
46
46
46
46
47
46
46
46
46
46
46
45
45
45
46
45
45
45
45
45
45
46
46
46
45
46
46
46
46
46
45
45
45
45
47
47
46
47
46
46
46
47
46
46
46
46
45
46
45
45
46
46
46
46
46
46
47
46
46
46
46
46
47
47
48
47
47
47
47
47
48
47
47
47
47
47
47
46
47
46
47
46
47
46
46
46
47
46
46
46
46
46
46
47
46
46
45
46
45
46
46
46
46
47
47
47
46
47
46
46
45
45
45
46
46
46
45
45
45
45
44
45
45
45
45
45
45
45
45
44
46
46
46
45
46
46
46
46
46
46
46
47
47
46
46
46
46
46
46
45
45
45
45
45
45
45
45
45
45
45
46
46
46
46
46
46
45
45
46
46
46
46
46
47
46
46
46
46
46
46
45
46
45
46
46
46
46
47
46
46
47
47
46
47
47
46
47
48
48
47
47
46
47
47
47
47
47
47
47
46
47
46
46
46
47
47
48
48
48
49
51
50
49
49
49
48
48
49
49
48
48
48
47
49
48
48
47
47
46
46
46
47
46
47
48
48
48
48
49
49
49
49
49
48
49
49
48
48
47
47
47
47
46
46
46
46
46
46
46
48
48
47
47
47
47
48
48
49
50
49
49
48
48
48
48
48
48
48
49
47
47
47
50
50
50
50
49
49
49
48
48
48
47
49
48
49
48
48
47
47
47
47
47
47
48
48
48
49
48
49
49
48
48
47
47
47
47
46
46
46
46
47
46
46
46
46
46
47
48
47
47
46
48
46
47
46
47
46
46
46
46
47
47
47
47
47
47
46
46
47
47
47
47
49
48
47
47
47
47
46
46
46
46
47
48
48
47
46
46
47
46
47
48
48
48
48
48
48
47
48
47
47
47
47
46
47
46
47
47
48
47
47
47
47
47
47
47
47
48
48
49
48
48
47
47
49
49
48
48
49
49
47
47
49
49
48
48
49
48
48
48
48
47
47
47
47
47
47
47
47
46
47
47
49
48
49
49
50
48
49
48
48
49
49
49
48
48
48
47
47
47
48
48
50
50
49
49
48
48
48
50
49
50
50
50
49
49
49
49
49
49
48
48
47
48
47
48
48
48
47
48
48
48
48
48
47
47
47
47
47
47
47
46
46
46
46
48
47
48
47
47
47
46
47
47
47
48
48
47
49
48
47
48
48
48
48
47
47
47
48
48
49
53
54
55
61
62
63
64
71
78
90
96
107
125
144
149
140
136
142
152
151
146
151
152
149
156
156
159
144
136
137
138
141
138
138
135
130
130
132
139
152
158
146
136
132
127
121
122
116
118
118
121
116
114
111
109
108
108
100
114
109
102
100
102
101
96
93
89
88
86
85
81
79
81
79
83
86
84
87
92
96
93
87
88
88
88
90
92
91
89
88
86
95
94
97
105
105
100
108
109
108
110
108
107
109
118
120
116
113
110
107
105
117
112
106
102
96
91
93
91
87
84
83
88
90
90
91
95
92
88
88
87
87
87
94
91
90
87
86
83
86
87
87
84
82
82
82
79
76
75
73
75
77
77
77
76
75
72
76
79
77
76
75
74
77
81
78
80
82
80
83
80
78
80
79
78
75
77
80
78
78
74
80
79
80
77
75
74
72
71
73
78
81
83
81
78
80
82
82
83
82
81
80
77
80
80
81
81
78
80
79
81
78
83
82
83
81
80
77
75
77
78
76
75
72
71
70
69
73
76
77
78
76
76
74
75
73
73
76
76
72
73
73
73
76
86
92
91
87
88
82
83
83
83
84
84
81
84
89
93
94
98
100
98
97
100
95
95
93
88
87
83
83
86
85
85
84
87
87
85
84
82
85
82
83
80
82
79
77
76
79
78
81
82
82
82
81
78
75
73
75
78
77
76
75
75
76
75
75
72
70
75
76
78
79
76
75
76
73
74
75
76
77
81
79
78
76
77
74
75
77
80
87
89
86
86
87
86
83
83
81
84
83
88
85
83
82
79
81
84
82
82
82
82
89
87
85
81
78
78
77
77
74
71
71
70
69
68
67
68
76
75
75
73
73
72
69
68
68
66
72
72
73
71
74
74
77
78
79
74
71
70
70
70
72
72
73
76
75
73
70
69
68
68
68
73
74
73
72
72
72
74
71
70
67
71
76
76
76
76
78
77
81
79
75
73
72
73
72
73
76
75
73
70
69
73
76
75
74
73
74
72
73
73
72
70
68
66
68
68
71
70
71
74
72
72
72
72
69
66
65
64
64
65
66
65
66
65
72
72
71
68
67
66
65
64
66
67
67
67
66
73
76
74
74
74
75
75
78
80
76
77
79
80
79
83
80
75
72
79
80
79
76
75
73
75
76
72
73
71
72
76
74
74
73
72
69
68
72
71
71
69
68
71
70
67
70
69
68
66
67
65
66
65
65
65
68
67
71
71
70
71
70
72
71
71
71
70
70
74
71
71
71
70
71
70
69
67
65
64
63
65
64
63
64
64
62
61
63
70
68
70
74
75
76
76
76
74
76
74
72
74
75
75
75
72
74
74
78
80
80
77
76
75
74
72
71
68
69
70
76
82
80
80
78
76
73
74
73
75
73
72
74
72
70
68
69
71
70
80
79
75
75
73
69
72
71
72
74
77
80
79
79
77
76
79
79
82
80
79
77
75
75
78
77
82
83
82
79
77
79
77
74
70
71
72
71
71
73
71
71
69
70
74
75
73
74
73
71
68
68
66
68
67
71
73
73
72
73
73
75
77
81
78
81
86
82
87
87
85
91
87
82
81
77
77
82
79
76
76
76
77
76
75
73
70
68
69
67
65
65
64
64
63
67
67
68
69
67
66
65
67
76
80
82
84
82
80
83
84
100
99
96
96
102
97
95
90
86
83
84
80
77
77
77
75
75
73
70
68
68
68
67
64
63
60
59
58
57
56
56
55
56
56
55
54
54
55
56
57
57
56
56
57
56
55
54
54
53
54
53
53
53
53
52
51
50
50
50
50
50
50
50
51
51
51
50
50
50
50
50
49
48
48
48
48
47
47
48
47
47
47
47
47
47
46
47
47
47
47
47
47
47
47
47
46
47
47
47
47
47
46
47
46
47
47
47
46
46
46
46
46
46
45
46
45
46
45
46
45
45
45
45
45
45
45
44
45
45
46
45
45
45
46
45
46
45
45
45
45
44
45
44
45
44
44
44
45
45
45
44
45
45
45
45
45
45
45
45
45
45
45
46
45
46
46
46
46
46
46
46
46
47
46
46
47
51
49
49
49
48
48
48
48
47
48
47
48
47
47
47
47
46
48
47
47
46
47
46
47
46
46
45
45
45
45
45
45
45
45
44
44
44
44
44
44
44
44
44
44
44
44
44
44
44
44
45
44
45
45
45
45
45
45
45
45
46
45
46
45
45
45
46
45
45
45
45
45
45
46
46
46
46
45
45
46
45
46
45
46
46
46
45
46
45
46
46
46
46
46
46
46
46
46
46
46
46
45
45
46
45
46
45
45
45
45
45
45
45
45
45
45
45
45
47
46
46
45
46
45
45
45
45
45
45
45
45
45
46
46
47
46
46
46
47
46
46
46
46
45
46
45
45
46
46
46
46
47
47
46
46
46
46
47
47
47
47
47
46
47
46
47
46
46
46
46
45
46
46
46
45
46
45
45
45
45
44
44
44
44
44
44
45
44
44
44
44
44
44
44
45
44
45
45
46
45
46
45
45
45
46
46
46
46
46
45
46
45
45
45
45
45
45
45
45
45
45
45
45
46
45
46
47
47
46
46
46
47
46
46
46
46
46
47
46
47
46
46
45
46
46
46
45
45
45
45
45
45
45
45
45
44
45
44
44
45
46
46
45
45
46
45
45
44
45
45
45
45
45
45
45
45
45
45
46
45
45
46
46
46
46
46
46
46
46
46
46
45
45
45
45
45
46
46
46
47
46
46
46
46
46
47
46
47
46
46
46
46
45
46
45
46
45
46
45
46
46
46
45
45
46
45
45
45
45
45
46
45
46
46
46
45
46
45
46
45
46
46
46
45
46
47
47
47
47
46
47
46
47
47
47
46
46
46
46
46
45
46
45
46
46
46
46
46
46
47
47
47
47
47
46
47
46
46
46
47
46
46
46
46
46
46
45
45
45
45
46
46
45
45
45
45
45
45
46
46
46
46
46
46
46
46
46
45
45
45
45
45
46
45
45
46
46
46
46
45
46
45
45
45
46
46
46
46
45
45
46
45
45
46
46
46
46
45
45
46
46
46
46
47
46
46
46
46
46
46
46
47
46
47
47
47
46
47
46
46
46
46
47
46
47
47
46
46
45
45
46
45
46
45
46
45
46
45
45
45
46
45
45
45
45
45
46
46
46
46
46
46
46
46
47
46
46
46
46
46
46
46
45
45
45
45
45
46
45
46
45
46
45
46
45
46
45
46
45
45
44
45
45
45
44
45
44
45
44
44
44
45
44
44
44
45
45
45
45
44
45
45
45
44
45
44
45
45
45
44
45
44
44
44
44
44
44
45
45
45
46
46
46
45
45
45
45
46
46
45
45
46
46
46
46
46
45
46
46
46
46
46
45
46
45
45
45
46
45
46
46
46
45
46
46
46
46
46
46
46
45
45
45
45
46
46
47
46
47
46
46
46
46
46
46
46
47
46
47
46
47
46
46
46
46
46
46
45
45
45
46
45
45
45
46
46
46
47
46
46
46
47
47
48
47
48
47
47
47
47
46
47
48
48
47
48
47
47
46
46
46
46
47
47
46
47
48
49
48
48
47
47
47
47
48
47
48
48
48
50
49
48
48
47
47
47
47
47
48
48
49
48
48
47
48
48
49
47
48
48
48
47
47
46
47
47
47
47
46
46
47
47
47
48
47
47
47
47
47
47
46
47
47
48
48
48
48
48
47
48
46
47
48
48
47
48
49
48
48
48
49
48
49
49
47
47
48
47
46
46
47
47
48
48
47
48
48
47
47
48
48
48
48
48
48
48
48
47
48
48
48
48
48
47
47
47
47
47
46
46
46
46
46
46
46
46
45
46
45
46
46
46
46
46
47
47
46
46
46
47
47
47
46
47
49
49
49
49
49
49
49
49
49
49
49
48
48
49
50
49
49
48
48
47
48
49
49
49
48
47
47
47
47
47
47
46
47
47
47
47
47
47
47
46
46
46
46
46
46
45
46
45
45
45
45
44
44
44
44
44
44
45
44
45
46
46
47
47
47
47
46
47
46
46
46
47
46
47
48
48
48
48
47
47
46
46
46
46
46
46
48
48
48
47
47
47
47
46
46
46
46
47
48
48
48
48
48
47
47
47
47
48
48
47
47
47
47
46
47
47
46
47
47
47
47
47
47
46
47
47
46
47
46
47
46
47
46
47
47
47
48
48
48
48
47
47
46
47
48
48
47
47
48
47
47
47
46
46
46
46
46
46
47
46
47
47
47
47
47
47
47
46
47
46
46
46
47
46
46
46
47
47
47
47
47
47
47
47
47
47
48
48
48
48
49
49
48
47
47
47
48
51
55
58
58
59
59
64
69
75
77
80
97
96
95
96
96
100
104
106
111
109
111
111
108
109
105
101
99
97
95
103
107
106
99
92
91
90
93
94
93
95
90
90
91
95
99
99
112
114
117
114
120
119
111
110
114
111
108
105
100
97
94
94
92
91
92
94
91
91
90
89
91
88
88
89
92
91
98
98
96
94
92
91
93
97
101
98
99
102
108
102
111
126
132
130
123
120
117
112
110
111
105
106
106
107
101
100
99
94
97
91
89
90
93
101
98
95
94
94
94
94
90
90
87
84
82
82
89
85
84
81
83
86
87
83
83
81
77
78
83
92
89
86
83
81
78
77
78
79
77
76
82
80
76
76
76
75
78
78
77
80
79
76
75
75
75
75
75
79
80
78
74
70
81
77
76
84
81
80
82
81
78
77
79
76
76
78
77
82
79
77
75
74
76
75
73
72
72
71
69
71
72
73
72
77
77
76
74
72
70
68
70
71
69
66
69
70
69
68
68
67
71
70
69
67
67
69
71
71
69
74
78
75
78
76
79
78
76
74
72
68
67
68
67
65
64
64
64
66
68
73
75
72
75
76
81
80
77
80
76
77
74
77
77
75
72
70
68
66
68
72
74
75
73
70
69
68
67
68
65
64
63
66
65
63
65
64
67
65
64
63
62
62
62
60
60
64
64
62
62
62
61
64
66
77
76
73
73
72
72
76
79
82
79
77
75
74
72
70
71
73
71
70
68
67
67
66
67
66
70
71
70
73
72
71
70
69
67
68
72
71
71
70
66
65
65
64
66
70
68
65
65
65
67
70
70
73
78
87
83
78
74
72
72
75
77
80
77
76
78
74
74
72
70
73
84
80
78
76
74
70
67
73
75
74
76
74
71
70
67
67
65
64
62
79
85
82
79
76
73
71
69
67
64
64
63
63
61
61
60
62
61
60
59
58
57
56
57
57
58
58
57
56
57
61
62
60
60
59
58
58
56
56
55
55
56
55
55
54
55
56
55
56
56
55
55
54
53
52
51
50
49
48
49
48
49
48
48
48
48
47
48
48
48
48
48
49
49
48
48
48
48
47
47
47
48
48
47
47
47
47
46
46
46
46
46
47
46
46
46
46
46
47
46
47
46
46
46
46
46
46
46
46
46
46
46
46
46
46
46
45
46
46
46
47
47
46
47
46
47
46
47
47
47
47
47
47
47
46
47
46
47
46
47
46
46
46
46
46
46
46
46
46
46
46
46
45
45
45
45
45
45
45
45
45
45
45
45
45
45
46
45
46
45
45
45
46
45
46
46
46
46
47
46
46
46
46
46
46
45
45
46
45
45
45
45
45
45
45
46
45
46
45
46
45
46
45
46
46
46
46
46
46
46
45
46
46
46
46
46
46
46
46
46
46
46
46
46
46
46
46
46
47
46
46
46
46
45
46
46
46
46
46
46
46
45
46
45
46
45
45
45
45
45
45
45
45
45
45
44
44
44
44
44
44
45
44
45
44
45
44
45
44
45
44
44
45
45
45
45
45
45
45
45
45
46
45
45
45
45
45
45
45
45
45
45
46
45
46
45
46
46
46
45
45
45
46
45
46
45
46
46
46
46
46
46
46
46
46
46
46
46
46
45
46
46
46
46
46
45
45
45
44
45
45
46
45
45
45
44
45
45
45
45
46
46
45
46
45
46
46
46
46
47
47
47
47
47
46
47
46
46
46
46
45
45
46
45
46
46
46
46
47
46
46
46
46
46
46
46
46
45
46
45
46
45
46
46
46
46
46
45
46
45
45
45
45
46
46
46
46
47
46
46
46
46
46
46
46
46
46
46
46
46
46
46
45
46
45
46
46
46
46
46
46
46
45
46
46
46
46
46
45
46
46
46
46
47
47
47
47
46
46
46
47
47
47
47
48
48
48
47
47
47
47
47
47
46
47
47
46
46
46
46
46
46
46
46
46
46
46
46
46
46
46
46
45
45
45
46
45
46
45
46
45
46
45
46
45
46
45
46
46
46
45
46
46
46
46
46
46
46
46
47
47
47
47
47
46
46
46
46
46
46
46
46
46
46
46
46
46
46
47
47
47
47
47
47
47
46
47
46
46
46
46
46
46
46
46
46
46
46
46
47
47
47
46
47
46
46
46
46
45
46
45
45
45
46
46
46
46
46
46
47
46
46
46
46
46
46
46
47
47
47
47
47
47
47
47
47
46
46
46
46
46
46
46
46
46
46
47
46
47
46
47
47
47
47
47
47
47
47
47
47
47
47
47
46
46
46
46
46
46
47
46
47
46
47
46
46
46
46
45
46
45
46
46
46
46
46
46
46
46
46
45
45
45
45
45
46
45
45
45
45
45
45
45
45
46
46
47
46
47
46
46
46
46
46
46
46
47
46
47
47
47
46
46
45
46
46
47
46
46
46
46
47
47
47
46
46
46
47
46
47
46
46
46
46
45
46
45
46
45
46
46
46
45
45
45
46
46
46
46
46
46
46
45
46
47
47
46
47
46
46
47
47
46
46
47
47
47
46
46
47
47
46
47
46
47
47
48
47
47
47
47
46
47
46
46
46
47
46
47
46
46
47
47
46
46
46
46
47
46
46
46
46
46
46
45
45
45
45
45
46
46
47
46
47
46
47
46
47
46
46
46
46
46
46
45
45
45
46
45
45
45
45
45
45
46
46
46
46
47
47
47
46
46
46
47
47
47
47
47
47
48
47
47
47
47
47
47
47
47
47
47
47
47
46
46
46
46
46
45
45
45
47
46
47
47
47
47
48
47
47
47
47
46
46
46
47
46
47
46
46
47
47
46
46
46
46
46
46
46
46
46
46
46
46
46
45
46
45
46
45
46
45
46
46
46
45
46
45
46
45
46
46
47
46
47
46
46
45
46
46
46
46
46
46
46
47
46
46
47
46
46
45
46
47
46
47
46
47
46
47
46
47
46
46
47
47
48
48
48
47
47
47
47
48
47
47
47
46
47
47
47
47
47
47
47
47
48
47
48
47
47
48
47
47
47
46
46
46
46
46
47
46
47
46
47
47
47
47
47
47
47
47
48
48
48
47
47
47
47
46
46
46
46
46
45
45
44
45
45
45
45
46
45
45
44
44
45
46
46
46
45
45
46
46
45
46
45
45
45
46
45
46
45
46
46
46
46
45
46
46
46
46
46
45
45
46
48
47
47
47
47
47
47
47
47
47
48
47
47
46
46
46
46
47
46
46
46
48
48
48
47
47
47
47
47
46
46
47
46
46
45
46
46
47
47
47
46
47
47
48
52
54
55
56
72
74
94
147
161
176
168
183
178
168
166
188
200
198
200
183
181
174
172
170
165
156
148
142
146
155
169
168
162
157
151
140
158
182
213
203
196
193
196
212
198
195
185
173
169
155
144
133
123
144
135
124
116
109
102
96
91
87
87
82
77
74
72
71
70
69
68
68
69
72
76
75
73
71
70
68
66
64
62
60
59
57
57
56
56
54
57
54
55
53
53
53
52
52
51
51
51
50
50
51
51
52
52
52
52
52
52
52
52
52
52
53
52
52
52
52
50
50
50
49
50
50
50
49
50
49
49
49
49
49
50
50
50
49
49
48
49
49
52
52
51
51
50
50
50
49
49
48
49
48
48
48
49
49
49
48
49
49
50
49
49
49
49
49
49
49
49
49
48
49
49
50
50
50
50
50
50
49
49
49
49
50
49
49
49
49
48
49
48
49
49
48
48
48
48
48
48
48
47
48
47
48
47
47
47
47
47
48
48
48
49
48
48
48
47
47
46
46
46
47
48
47
48
47
47
47
47
47
48
47
48
48
48
47
48
47
47
47
48
47
47
47
47
48
47
47
48
48
49
48
48
49
48
48
47
47
47
48
47
47
47
47
47
47
47
48
47
47
46
47
47
47
47
47
47
47
46
46
46
46
46
46
46
46
46
46
46
46
46
46
46
45
46
46
46
46
46
46
46
46
47
47
47
47
47
47
47
47
47
47
47
47
47
48
48
47
47
48
48
48
48
47
47
48
48
48
48
48
47
48
47
48
48
48
47
48
48
48
48
48
48
48
48
48
47
47
47
47
48
48
48
47
47
47
47
46
46
46
46
46
47
47
47
47
48
47
47
47
47
46
47
47
47
47
47
46
46
47
47
47
47
47
47
46
46
46
46
46
46
47
46
46
46
47
47
48
47
47
47
47
47
48
47
48
47
48
48
48
47
48
48
48
47
47
47
47
47
47
47
47
47
47
47
46
47
47
47
46
47
46
46
46
47
47
48
48
48
47
48
47
47
47
47
47
48
48
48
47
47
47
47
47
47
46
46
46
46
47
46
47
46
46
46
46
46
47
47
47
47
47
47
48
48
49
48
48
47
47
48
48
47
48
48
48
47
48
47
47
47
47
46
47
47
47
47
46
47
46
47
47
47
47
47
47
47
47
47
47
47
47
47
47
47
47
47
47
47
47
48
48
47
47
48
47
48
48
48
48
47
48
47
47
47
46
46
47
46
47
47
47
47
47
47
48
48
48
48
48
48
48
47
48
47
47
47
48
47
47
47
47
48
48
47
47
48
47
47
47
47
47
47
46
47
46
47
47
48
48
48
48
48
48
48
47
47
47
48
47
47
47
48
47
48
47
47
47
47
47
47
47
47
47
48
47
47
48
47
47
47
48
48
48
48
48
48
48
48
49
49
49
48
48
48
48
48
49
48
48
48
49
48
48
47
47
47
47
48
47
48
47
47
47
47
47
47
46
47
47
47
47
47
47
47
46
47
46
47
47
47
46
47
47
47
47
47
47
47
48
48
48
48
48
47
48
47
47
46
46
46
47
47
48
47
48
47
47
47
47
47
47
47
48
48
48
47
47
47
47
47
47
46
46
47
47
47
47
47
47
47
47
47
48
48
47
47
47
47
47
48
47
47
47
47
47
48
48
48
48
48
48
48
48
48
47
47
47
47
47
47
47
47
47
47
47
47
48
48
48
47
47
47
47
47
47
48
48
47
48
48
47
47
47
47
48
47
48
48
48
49
48
48
48
48
48
48
48
47
47
48
47
48
47
47
47
47
47
47
47
47
47
47
47
47
48
48
48
48
48
49
48
48
47
47
47
47
48
47
47
47
47
48
49
49
50
49
49
49
48
48
48
48
48
48
49
48
48
49
49
49
49
49
49
48
49
48
49
49
49
49
49
48
48
48
48
48
48
48
48
49
48
49
48
49
48
48
48
48
48
48
48
48
50
50
50
50
49
49
48
49
48
48
48
48
47
47
48
48
48
48
48
47
48
48
47
48
48
48
48
47
47
48
49
48
48
48
48
47
48
48
48
48
48
48
48
48
48
48
48
48
48
48
48
48
47
48
48
48
48
48
49
49
49
49
49
50
49
49
47
48
47
47
47
48
47
49
48
49
48
48
48
48
48
48
48
48
47
47
47
48
48
48
49
48
49
48
49
48
48
48
48
48
48
48
49
49
49
49
49
49
49
49
49
48
48
48
48
48
48
48
48
48
48
47
47
47
47
48
48
48
48
48
49
50
48
49
49
49
49
48
48
49
48
48
48
48
48
48
48
48
48
48
48
48
47
48
48
48
49
48
49
49
48
48
48
47
48
47
48
47
47
46
47
47
48
47
48
47
48
47
48
48
48
48
49
49
49
48
48
48
48
48
48
48
48
48
48
49
48
48
48
48
48
48
48
49
49
49
48
49
48
48
48
48
48
48
49
49
50
50
49
49
49
49
49
49
49
49
49
49
49
48
48
48
48
48
48
48
48
48
48
47
47
47
48
48
49
48
48
48
49
48
48
48
48
48
48
49
49
48
48
47
47
47
47
47
47
48
47
48
47
48
47
48
47
48
48
49
48
48
49
49
49
50
49
49
49
49
48
48
48
48
47
48
47
47
48
48
48
48
47
47
47
47
47
48
48
47
48
48
48
49
48
48
47
48
48
48
47
47
47
48
48
47
48
47
48
48
48
48
48
48
48
47
47
47
47
46
46
46
46
47
47
48
47
48
47
47
47
47
47
47
47
48
47
48
49
49
49
50
49
49
49
48
49
49
49
49
48
47
48
48
48
47
48
48
50
49
49
48
48
48
49
49
49
49
49
49
50
49
50
50
50
50
50
49
49
48
49
49
48
48
49
48
48
49
49
49
48
48
49
51
55
59
62
83
99
118
154
174
173
210
234
256
248
233
213
194
178
161
145
134
123
118
116
114
114
116
111
103
98
94
97
91
85
82
79
76
74
70
69
67
64
68
65
64
65
62
62
60
59
58
58
58
57
56
55
53
53
52
51
50
52
52
51
50
50
52
53
54
54
53
52
52
50
50
49
49
49
49
50
50
49
49
49
49
50
50
50
50
50
50
50
50
51
50
50
49
49
49
49
49
49
49
50
49
49
48
48
48
48
48
48
48
49
49
49
48
48
48
48
48
48
49
48
48
48
48
48
49
49
51
50
50
49
49
49
49
48
49
48
49
49
50
49
49
49
49
49
48
48
49
48
49
48
48
48
48
47
47
48
48
48
48
47
47
46
46
46
46
46
45
45
45
46
45
46
46
46
46
46
46
46
47
47
47
48
47
48
48
48
49
49
49
49
49
49
49
49
49
49
48
48
48
48
48
47
48
49
49
49
51
50
50
49
49
48
49
49
49
48
48
49
48
47
48
47
47
46
47
46
47
46
46
46
46
46
47
47
47
47
47
47
47
47
47
47
46
47
47
47
47
48
47
48
48
49
49
49
49
49
49
49
48
49
48
49
48
49
49
49
49
49
50
49
49
49
49
49
50
49
49
48
48
48
49
48
48
48
48
48
48
48
48
48
48
48
48
48
48
48
48
47
47
48
48
48
48
48
48
48
47
47
47
47
47
49
48
48
48
48
48
48
48
48
48
48
47
48
47
47
47
47
47
47
47
47
47
47
47
47
48
47
47
47
47
47
48
48
48
48
48
48
49
49
49
49
49
48
49
49
49
49
49
49
49
49
49
48
48
48
48
48
48
47
47
47
47
47
47
47
46
47
47
46
47
47
46
46
46
47
47
48
48
48
48
48
48
48
48
48
47
48
47
47
47
48
47
47
47
47
47
47
47
47
48
48
49
49
49
49
49
49
50
49
49
49
49
49
49
48
48
47
48
48
49
49
48
47
48
48
48
48
48
48
48
49
48
49
49
49
48
48
47
47
47
47
47
47
46
47
46
47
46
47
46
47
47
48
47
47
48
48
48
48
48
48
48
48
48
48
48
48
48
48
48
47
48
48
48
48
49
49
49
49
50
49
50
49
50
49
49
50
50
50
50
49
49
49
49
49
50
49
50
49
49
49
48
48
48
48
47
48
47
47
46
46
46
46
46
47
47
47
47
47
47
48
48
48
48
48
48
47
47
47
46
46
47
47
47
47
47
47
47
47
47
47
47
46
47
47
48
47
48
48
48
48
49
49
49
49
49
48
49
48
49
49
49
48
48
48
48
48
48
49
48
48
48
47
47
48
47
47
47
47
47
48
47
48
47
48
48
48
48
48
48
48
47
48
47
48
48
48
47
47
48
47
47
47
47
47
47
47
46
46
48
47
47
47
47
46
47
46
47
46
47
47
47
47
47
47
48
48
48
48
49
48
48
48
48
48
47
47
47
47
47
47
47
47
47
48
47
47
47
47
47
47
47
48
48
48
48
48
48
48
48
48
48
48
48
48
47
48
47
47
46
46
46
46
46
46
46
46
47
46
46
46
46
47
46
46
46
46
47
46
47
46
47
47
47
47
47
47
47
47
48
47
47
48
48
47
47
48
48
48
48
47
47
47
47
47
47
47
47
48
48
48
48
48
47
48
47
48
48
48
47
47
47
47
48
48
48
48
50
49
49
48
48
48
48
47
47
47
47
47
46
46
47
47
46
46
47
46
46
46
47
47
47
47
48
48
48
48
48
48
48
48
48
47
48
48
49
48
49
49
49
49
49
49
49
48
48
48
48
49
48
49
48
49
48
48
48
49
48
48
48
48
48
48
47
48
48
48
48
48
48
48
49
48
48
48
47
47
47
48
48
48
47
47
47
47
46
47
47
47
47
47
47
48
48
47
47
47
47
48
48
48
48
48
48
48
48
48
48
48
48
47
47
48
47
49
48
49
48
49
48
48
47
47
48
48
48
49
48
49
48
49
49
49
49
49
48
48
48
48
48
48
48
48
48
48
48
48
49
48
50
49
48
48
49
48
49
48
48
48
48
48
48
48
49
48
48
47
48
47
47
46
47
47
48
48
48
49
49
48
48
49
48
48
48
47
47
48
47
48
48
48
47
48
47
48
48
49
48
49
49
49
48
48
48
49
48
48
48
48
48
48
49
49
48
48
48
47
48
48
48
47
47
47
48
47
47
46
47
47
47
47
47
46
47
46
46
47
47
46
47
46
47
46
47
46
47
47
47
47
47
47
46
46
46
47
47
47
46
47
47
47
47
48
47
47
47
48
47
47
46
47
47
47
47
47
47
47
46
46
46
47
47
47
47
47
47
47
47
47
46
46
47
46
47
47
46
47
48
47
47
47
48
47
48
48
48
48
48
48
49
48
48
48
47
47
46
45
46
46
45
45
45
45
46
47
48
49
48
52
55
66
74
80
94
112
140
146
157
157
159
158
166
159
155
156
158
155
167
161
152
164
160
150
158
153
151
168
160
149
141
136
137
132
133
133
138
139
135
142
141
147
151
154
143
135
124
117
113
141
136
134
131
130
121
116
112
105
100
99
97
101
105
101
99
95
100
97
92
91
92
104
109
105
109
110
112
108
106
105
111
115
117
121
118
109
111
109
111
116
112
115
116
113
109
110
107
108
102
103
108
108
105
102
102
98
101
115
123
115
109
107
105
104
102
107
106
101
100
94
90
89
86
85
87
94
96
96
92
95
98
95
90
89
89
90
96
91
90
90
89
83
80
76
79
75
72
71
71
70
67
66
67
65
65
62
60
62
63
62
65
68
67
67
65
62
63
64
63
61
61
62
63
60
58
56
55
55
56
56
55
54
54
53
53
53
53
52
52
53
53
53
52
52
52
52
52
54
53
53
52
52
51
52
52
52
50
50
51
51
51
50
50
50
49
48
48
48
48
48
49
48
49
49
49
48
47
47
48
47
48
48
48
48
49
48
50
50
50
50
50
49
50
49
49
49
49
48
48
49
49
50
50
50
50
50
50
51
50
50
50
50
49
50
50
51
50
50
50
51
51
51
51
51
51
51
51
51
50
50
50
50
50
50
50
50
50
49
49
49
49
49
49
48
48
48
47
47
48
48
48
48
48
48
48
48
48
48
48
48
48
49
49
49
49
49
49
49
50
49
49
49
49
48
48
49
48
48
48
48
48
48
48
48
48
48
49
49
49
49
50
50
50
51
51
51
51
51
51
52
52
52
52
51
51
50
50
50
50
49
49
49
49
49
49
48
48
48
48
48
48
48
48
48
49
48
49
48
48
48
48
48
48
48
48
48
48
48
48
48
48
48
48
48
48
48
48
47
47
47
47
48
47
48
48
48
48
48
49
49
49
49
49
49
49
49
49
49
48
49
49
49
48
49
48
49
48
48
48
48
49
48
48
48
49
48
49
48
48
48
48
47
48
48
48
48
48
48
48
48
48
48
48
48
48
48
48
48
48
47
47
48
48
48
48
48
48
47
47
47
47
48
48
48
47
48
47
48
47
48
47
48
48
48
48
48
48
49
48
49
49
49
48
49
49
49
49
49
49
49
49
49
49
49
49
48
49
48
48
48
48
48
48
48
48
48
48
48
48
48
48
48
48
47
48
48
48
48
48
48
48
48
48
48
48
48
47
48
47
47
47
47
47
47
47
47
47
47
47
47
47
47
47
48
48
48
47
47
47
48
47
48
48
48
48
48
48
48
48
48
48
48
48
48
49
48
49
48
48
48
48
48
48
48
48
48
48
47
48
48
48
48
48
48
48
48
49
48
48
48
48
48
47
47
48
48
47
48
47
47
47
48
47
48
47
48
48
48
47
48
47
48
48
48
48
48
48
48
48
48
48
48
48
48
48
48
48
48
48
48
48
48
48
48
48
48
48
48
48
48
48
48
49
48
49
49
49
49
49
49
49
49
49
49
49
48
49
49
49
48
48
48
48
48
48
49
49
48
48
48
48
48
48
49
49
49
49
49
48
49
49
48
49
49
49
49
49
49
49
49
49
49
49
49
49
49
49
49
49
48
49
48
49
48
48
48
49
48
48
48
48
48
48
48
49
48
49
48
49
49
49
49
49
49
49
49
49
49
49
49
49
49
49
49
49
49
49
49
49
49
49
49
48
48
48
48
48
48
48
48
48
49
48
49
48
49
48
48
48
49
48
49
48
49
48
48
48
48
48
48
49
48
48
48
48
47
48
48
49
49
49
49
49
49
49
48
49
49
49
48
49
49
49
49
49
49
49
49
48
48
48
49
49
49
49
49
48
48
48
48
48
48
48
48
48
48
48
48
48
49
48
48
49
49
48
48
48
48
48
49
48
49
48
49
48
49
49
49
49
48
48
48
48
48
49
48
48
48
49
48
48
48
49
48
49
48
48
48
48
48
48
48
49
48
48
48
48
49
49
49
49
49
49
49
49
49
49
49
48
48
48
48
48
48
48
49
49
49
49
50
49
50
49
49
49
49
49
49
48
48
48
49
49
49
49
49
48
49
49
49
49
49
48
48
49
48
49
48
48
48
49
48
49
48
49
48
49
48
48
