103
102
103
101
99
97
100
101
100
96
96
96
96
93
100
96
97
95
98
100
105
104
101
104
106
103
104
105
103
106
104
104
101
102
102
106
106
105
104
106
104
106
105
106
104
107
103
108
108
110
109
108
105
105
109
116
115
115
118
120
118
116
113
110
107
104
105
103
100
99
101
100
100
104
106
103
105
99
101
98
99
96
102
102
103
105
107
104
103
104
102
104
109
109
107
108
106
105
105
106
104
107
105
105
105
105
103
100
101
105
101
102
102
106
109
109
108
108
113
109
105
106
107
107
108
106
106
102
101
98
101
99
105
101
103
102
103
103
104
104
102
100
102
101
108
112
110
110
108
109
109
111
111
111
109
108
107
107
106
105
103
105
101
102
100
104
102
103
102
111
107
108
107
107
107
103
107
107
106
110
111
110
113
113
113
110
111
111
112
109
114
113
116
112
114
112
114
111
108
104
106
105
107
109
109
113
112
110
104
106
107
109
107
109
109
111
112
113
110
113
111
109
110
109
107
108
110
109
108
111
112
113
110
106
106
107
108
105
105
101
103
101
98
96
95
94
95
95
97
95
96
95
95
92
95
95
99
101
106
104
105
98
97
96
103
103
108
109
110
110
109
107
104
105
106
110
107
108
106
108
109
111
109
107
105
103
103
104
106
108
103
107
107
104
106
103
104
102
103
109
111
106
103
106
107
103
102
99
104
106
106
102
102
102
100
93
92
93
93
94
98
98
98
94
96
100
103
102
107
109
107
110
108
109
105
103
101
104
103
105
104
105
104
110
105
108
107
107
104
105
107
106
108
109
108
108
109
108
108
107
108
111
109
108
110
108
110
109
111
110
111
108
108
103
102
105
108
105
104
103
104
103
100
99
101
100
104
102
100
101
100
101
101
101
102
104
103
104
104
107
107
108
103
103
105
107
105
110
110
113
108
108
103
103
101
104
106
109
110
106
106
102
96
92
91
91
94
94
95
93
95
91
95
100
102
100
102
102
104
105
109
108
112
110
111
111
109
109
110
111
111
113
111
110
108
107
104
106
104
104
103
105
100
102
97
97
95
101
103
102
97
98
98
99
98
98
99
101
102
105
107
106
109
111
109
106
104
102
104
102
104
103
105
104
106
103
114
110
109
106
107
106
110
105
110
110
110
110
110
111
110
111
112
110
109
111
109
109
105
110
110
107
103
111
110
110
106
106
102
100
93
94
96
99
102
101
108
115
118
118
127
125
160
187
195
194
206
230
240
253
311
353
371
368
391
384
394
386
379
360
366
392
397
387
380
384
415
402
406
402
390
418
409
396
373
366
360
359
330
316
297
320
324
326
331
319
314
295
291
335
315
304
305
303
339
303
299
335
313
293
277
263
241
225
220
207
192
191
201
192
179
164
157
153
162
163
168
161
149
146
157
158
165
163
154
146
143
142
153
143
135
135
129
132
136
129
121
121
114
114
116
126
122
121
128
125
123
129
124
124
124
114
111
110
123
123
119
114
114
112
111
111
119
123
122
116
120
117
119
117
127
126
129
125
126
128
129
124
132
129
141
133
131
135
131
136
132
129
124
124
123
121
118
128
121
122
113
118
114
113
130
130
130
127
120
121
115
123
127
123
115
119
116
117
120
120
125
119
119
114
114
110
119
116
114
126
126
117
114
109
115
113
110
117
121
118
120
115
125
121
123
120
128
129
133
128
134
129
120
113
118
116
115
131
129
121
118
117
112
113
109
116
124
125
121
118
116
114
128
122
122
119
113
112
112
104
131
124
121
115
112
113
116
122
123
119
117
116
116
109
124
124
118
118
110
108
109
119
126
126
127
126
120
115
126
137
132
131
131
127
129
129
133
129
139
131
130
123
125
129
126
123
124
124
123
124
132
128
123
125
118
119
115
118
115
111
112
125
121
130
131
123
118
115
123
120
119
117
118
111
105
103
104
96
104
105
107
114
109
108
107
110
111
107
108
114
112
114
113
112
111
119
114
110
105
111
112
114
124
123
120
118
113
121
125
128
134
130
129
127
125
120
121
116
125
122
119
114
116
115
113
108
124
124
119
117
120
112
114
111
118
116
111
117
119
115
113
111
118
114
108
107
107
116
118
111
117
117
115
115
115
117
112
106
109
123
121
118
109
105
105
103
103
108
104
100
100
105
105
111
108
104
114
110
111
109
107
100
99
98
99
109
106
105
107
110
107
109
112
114
118
114
117
108
108
105
99
103
110
116
109
106
114
126
122
119
117
123
121
117
113
116
111
116
113
112
112
111
118
115
111
116
112
107
120
114
120
123
117
116
112
112
110
106
102
99
101
96
111
111
109
108
109
101
98
99
96
93
107
104
104
106
113
108
104
106
109
108
120
122
127
134
136
139
155
166
169
174
178
188
179
172
171
173
188
184
178
199
197
204
186
175
171
184
187
215
199
192
188
194
216
202
202
194
181
168
160
158
153
151
157
164
156
155
155
150
146
143
148
135
129
131
141
148
148
140
135
125
117
112
112
109
110
112
115
126
127
120
115
110
114
113
123
125
153
156
146
139
132
132
130
138
157
158
151
146
137
130
135
124
129
133
130
125
122
117
113
109
134
127
131
123
125
120
124
119
114
109
114
112
105
107
123
120
115
110
116
125
124
122
135
127
117
114
110
107
107
109
123
120
117
113
115
127
142
131
127
126
124
119
117
132
136
134
129
123
119
121
123
125
130
125
121
117
119
116
122
128
126
120
119
116
115
109
109
124
122
126
120
122
122
113
111
121
119
128
127
120
117
115
129
127
120
121
117
112
105
114
123
121
118
114
119
113
108
113
125
123
114
109
102
116
112
112
106
115
111
107
107
101
97
92
103
109
121
121
115
109
111
105
108
99
106
105
104
100
98
105
102
102
113
119
130
121
115
109
105
109
105
102
131
128
119
114
109
110
108
116
113
112
120
119
118
113
115
112
106
118
122
115
116
110
110
101
105
104
117
127
120
116
114
121
116
112
109
103
115
119
118
112
109
119
111
103
102
114
109
109
111
109
107
113
111
123
118
131
126
122
114
114
117
126
119
123
116
110
105
101
97
101
123
125
115
112
106
103
97
99
96
94
121
123
124
133
128
121
116
110
113
117
114
109
126
121
123
118
113
106
112
111
119
110
115
111
110
109
114
121
116
120
129
125
119
124
127
125
133
127
117
115
112
116
120
135
133
143
142
146
146
156
147
147
161
168
170
170
171
175
183
197
196
186
175
209
219
208
218
213
217
215
202
207
205
199
197
220
219
210
203
206
210
210
249
241
237
224
225
215
218
232
222
224
218
225
223
231
251
245
231
217
205
196
201
201
206
198
181
174
169
187
194
183
164
151
144
136
130
136
131
137
128
134
139
141
143
138
133
138
143
158
185
202
202
196
201
187
173
178
171
175
168
162
154
147
139
137
131
126
127
126
120
120
128
121
119
114
105
115
109
108
116
130
119
115
109
109
101
103
104
100
127
127
116
118
111
109
105
109
121
119
115
111
107
109
112
109
114
114
113
109
106
100
96
102
106
106
112
104
100
101
99
98
109
128
120
117
113
112
110
109
106
122
116
115
109
104
103
100
102
121
116
119
114
109
110
107
106
121
113
106
104
105
109
109
124
118
113
118
114
109
110
111
124
133
127
125
118
111
114
116
121
119
116
122
116
109
108
106
108
123
119
114
110
115
112
105
122
118
123
121
116
112
115
111
105
112
110
111
109
110
104
106
103
104
104
99
96
95
92
88
91
102
101
106
104
104
111
107
107
117
116
114
113
108
106
103
100
99
108
108
113
111
124
119
115
109
118
116
109
101
102
103
110
113
117
110
107
104
100
100
94
102
101
113
112
116
114
115
117
117
115
118
140
134
126
125
128
121
112
110
110
104
117
118
116
110
118
115
113
112
110
108
102
120
114
120
118
119
115
106
105
98
123
122
115
112
116
128
123
121
121
121
124
123
120
116
128
124
123
120
123
130
121
116
110
122
124
115
109
107
114
110
103
99
99
98
102
100
100
99
95
99
101
98
107
110
106
104
115
114
115
139
132
130
127
119
114
113
111
112
121
118
122
115
113
107
107
101
107
100
100
107
107
109
110
108
103
117
112
104
97
95
102
105
104
102
96
107
103
97
94
102
103
108
103
100
100
108
107
106
104
101
95
101
102
101
99
102
105
103
101
99
98
103
104
100
107
105
103
99
99
98
95
92
98
100
106
98
95
94
92
91
91
87
83
91
110
112
108
106
103
98
94
95
98
98
93
96
95
95
97
109
104
113
116
126
163
182
209
211
238
238
271
282
275
258
244
268
270
275
269
265
295
281
271
264
277
259
265
242
235
217
238
217
212
219
223
223
230
230
231
219
214
205
193
190
197
199
191
204
194
183
173
179
194
201
223
222
206
209
218
209
202
211
210
209
206
194
185
172
175
167
163
195
212
192
179
175
165
158
160
157
150
155
162
151
144
134
129
122
123
128
123
113
109
112
126
124
121
119
119
115
119
117
116
110
103
103
107
115
116
114
111
117
120
123
121
121
121
120
115
118
111
117
118
125
113
110
110
111
114
112
118
113
112
110
110
114
123
122
117
123
118
113
108
105
107
126
141
131
132
128
128
128
128
127
127
140
132
128
130
123
121
117
114
125
128
123
118
112
110
113
108
108
107
118
112
115
109
108
107
104
112
110
110
110
106
107
100
100
101
99
95
104
111
103
103
100
114
113
108
111
116
120
117
113
116
113
110
108
105
102
116
110
116
115
111
105
107
110
112
118
117
114
126
125
120
118
117
115
117
112
118
115
115
115
112
114
116
110
103
111
112
107
98
99
97
105
106
106
105
116
117
113
110
111
120
117
116
112
126
120
118
116
111
107
110
115
118
110
116
112
115
108
107
105
108
100
102
99
106
103
105
107
105
98
102
105
108
105
101
100
101
109
107
109
127
123
121
118
113
110
110
103
98
109
106
115
109
109
106
102
98
95
91
102
97
95
99
95
94
93
93
90
91
98
107
105
105
109
107
100
104
98
98
95
106
109
111
106
99
98
93
95
95
98
100
112
123
119
115
118
121
119
114
110
105
103
109
104
105
106
100
97
97
95
92
100
100
103
101
112
108
102
103
100
100
98
97
113
122
116
115
115
120
121
117
112
119
119
115
122
119
111
109
105
103
97
110
104
100
108
112
110
107
106
105
103
101
112
109
119
116
118
115
111
105
109
110
109
117
120
116
114
114
115
111
126
125
127
118
120
115
111
112
111
107
111
115
113
112
111
114
114
113
110
111
130
125
120
118
110
111
108
107
103
117
112
120
120
114
114
118
112
113
132
128
119
116
113
113
113
108
109
127
124
124
122
117
121
115
111
108
107
108
136
132
131
124
127
125
125
119
122
125
116
114
112
111
116
119
113
127
125
121
118
118
115
109
102
110
107
104
104
105
106
107
98
95
91
101
106
114
107
103
96
94
91
88
92
94
98
105
102
99
98
99
108
108
105
103
101
107
113
114
109
111
111
114
110
118
114
111
108
103
105
109
115
119
120
115
114
108
101
99
96
94
115
111
115
115
107
104
103
102
99
98
102
100
96
102
100
97
94
96
95
98
105
102
98
96
99
102
105
98
100
115
118
113
108
100
97
94
93
89
86
81
93
95
97
93
94
97
98
99
101
98
109
108
102
100
107
108
105
102
96
97
107
108
124
120
118
115
109
107
109
111
107
103
95
96
100
97
94
89
87
98
106
104
104
102
113
112
108
122
117
118
115
116
113
111
112
104
103
118
117
111
109
104
98
98
105
101
99
118
125
128
121
115
109
107
105
105
113
107
115
118
114
113
116
121
114
119
118
119
113
112
110
108
115
108
114
122
116
119
114
112
110
115
112
109
106
117
120
120
119
114
117
111
115
110
107
101
107
115
119
111
113
117
113
107
108
105
120
112
112
110
110
107
105
102
100
112
112
108
112
111
105
102
105
104
103
105
104
106
105
105
100
103
98
98
101
105
101
114
106
107
108
106
107
107
103
104
107
114
116
113
117
113
110
104
104
105
111
109
120
111
111
107
104
101
106
112
119
122
124
113
122
113
108
115
120
118
109
110
106
115
133
135
140
154
157
158
166
166
173
176
189
208
262
299
291
303
362
345
341
348
323
349
357
364
378
381
402
381
408
414
409
397
376
365
397
394
402
404
440
415
385
370
389
447
444
445
432
431
410
396
376
359
372
382
377
345
365
374
418
407
414
414
426
421
409
374
369
341
348
349
328
307
293
292
283
279
282
266
261
247
223
205
218
205
191
173
162
156
156
147
173
195
181
166
158
143
137
129
122
137
142
147
149
136
133
123
136
134
141
133
129
130
126
145
139
133
130
133
127
128
125
122
130
144
134
127
119
121
112
119
119
131
124
125
121
121
124
123
125
133
125
125
128
122
117
114
114
113
123
123
123
116
119
112
115
107
103
116
134
135
131
128
131
120
114
124
156
148
137
128
124
118
113
137
133
137
129
123
122
115
123
136
138
128
124
120
120
117
113
126
115
123
118
117
108
113
123
120
123
126
121
134
131
139
142
147
156
147
135
127
133
128
136
128
126
120
124
113
116
136
150
144
142
130
130
131
145
158
151
142
144
138
132
146
144
140
138
142
137
142
150
146
145
140
139
148
146
146
142
143
133
138
137
130
123
136
144
141
142
134
125
116
119
129
135
130
123
127
120
145
161
153
143
131
132
124
119
132
143
144
135
132
129
124
140
150
145
137
130
130
125
118
129
128
123
116
116
113
112
110
139
150
144
134
129
128
123
126
134
133
129
127
123
122
114
111
123
121
122
120
118
109
106
112
127
129
126
119
125
118
113
112
121
125
130
126
129
128
124
122
120
127
129
127
121
120
120
117
115
113
114
113
115
118
118
125
122
122
126
118
122
117
124
121
116
131
139
134
128
131
127
124
117
114
116
126
122
116
141
144
137
133
128
133
134
131
145
138
139
127
122
126
121
112
129
130
128
121
121
118
115
118
115
116
114
113
111
123
120
114
136
127
125
120
116
115
128
140
134
139
134
129
121
119
128
126
127
135
135
130
133
125
132
138
129
131
126
122
120
115
112
117
118
118
126
118
120
114
112
117
127
123
126
116
114
110
112
108
106
113
124
127
131
127
120
118
126
137
132
133
130
128
119
123
121
124
125
150
143
139
129
122
116
112
108
111
120
122
118
113
109
110
107
104
123
126
124
119
118
111
105
107
101
119
130
124
127
130
125
121
116
110
119
117
119
112
110
120
118
114
120
115
111
124
136
134
128
132
134
127
122
121
120
126
125
119
124
128
121
115
109
107
111
125
141
136
129
124
127
127
126
122
116
119
122
117
116
113
115
118
133
123
128
139
138
128
120
116
113
110
115
118
122
127
129
127
126
122
121
115
134
125
117
111
122
117
122
120
120
119
117
114
117
123
114
111
111
111
108
109
118
116
113
113
108
118
130
126
121
122
126
128
122
124
120
127
131
124
117
119
120
120
115
109
125
122
126
118
114
109
110
107
113
111
109
115
112
105
103
101
102
103
105
109
108
118
114
107
105
104
104
103
101
99
103
110
128
124
116
115
108
112
106
104
105
100
102
99
93
97
112
114
105
108
115
116
112
107
109
103
100
96
94
106
127
125
124
123
122
116
114
108
103
100
96
94
100
105
107
100
100
96
99
94
92
98
95
102
100
112
107
101
95
99
110
108
117
119
114
110
106
103
114
114
112
111
107
108
100
105
114
112
109
123
134
134
130
121
115
133
131
132
130
137
136
129
121
117
113
115
108
107
116
111
119
117
114
116
136
136
144
144
137
138
133
126
125
117
123
125
128
122
122
131
125
134
137
144
144
142
138
152
208
234
221
205
199
193
183
189
195
208
210
211
216
219
234
246
237
217
214
228
226
218
216
224
268
257
253
236
229
262
259
251
244
231
244
252
233
237
230
237
233
236
243
223
216
225
230
230
225
216
208
223
216
249
236
213
198
190
195
214
218
203
187
186
183
168
157
152
160
182
182
191
193
191
184
202
242
237
252
238
230
225
227
226
209
209
217
204
194
192
185
176
175
174
175
170
165
155
150
169
162
158
151
159
156
154
144
139
149
151
142
153
144
148
141
143
138
134
131
127
134
137
133
144
142
128
133
132
134
141
128
150
140
135
130
123
138
150
150
147
141
132
126
116
121
116
124
118
116
117
117
112
110
110
107
108
111
111
125
120
120
117
121
125
119
112
124
124
116
116
118
119
119
115
120
121
119
121
123
120
111
116
109
116
113
117
120
126
125
122
118
117
119
114
114
111
113
106
102
100
99
109
112
116
114
115
118
115
125
119
132
136
133
130
130
122
118
118
132
140
132
130
131
126
126
122
117
121
126
128
120
124
117
119
119
118
124
120
123
128
129
123
123
122
114
118
112
113
109
124
122
128
121
120
125
122
120
114
110
105
103
101
102
102
99
106
106
107
104
102
94
116
112
111
118
120
120
114
116
112
108
101
94
107
105
105
113
123
119
116
110
110
106
110
108
120
114
122
124
118
113
113
107
103
96
102
106
108
133
129
126
122
119
112
106
105
107
104
102
105
114
106
104
103
104
106
107
107
101
97
100
92
98
91
91
90
90
94
88
92
87
84
84
85
83
80
88
89
87
88
87
90
86
86
84
93
103
104
101
101
97
91
89
89
87
86
94
104
99
110
108
117
114
114
115
118
111
109
111
112
122
136
130
124
116
109
108
101
99
102
98
112
106
100
97
91
88
96
95
106
106
101
98
97
117
113
116
110
105
101
106
102
98
101
101
100
111
110
106
104
115
120
113
106
101
99
97
93
96
108
108
115
120
121
115
112
110
108
105
112
110
108
119
122
131
126
122
116
114
108
114
116
119
123
129
127
130
131
124
136
127
122
117
122
125
123
122
119
124
118
113
114
108
107
104
102
111
110
107
107
108
103
98
99
95
94
97
101
96
100
108
105
104
100
96
96
110
108
110
123
124
114
113
107
104
108
121
124
123
128
122
119
117
117
110
104
106
115
110
110
111
111
105
110
103
105
110
107
107
109
114
113
110
108
119
124
117
116
112
117
115
109
105
102
96
110
102
98
106
101
105
110
108
113
113
112
109
106
109
112
111
103
105
117
110
103
101
98
94
92
89
108
115
113
108
102
110
107
109
106
103
125
125
117
113
111
105
109
105
98
104
120
119
114
109
109
105
108
108
109
118
133
131
126
125
119
115
112
116
108
109
110
106
108
104
105
102
98
94
94
109
121
118
111
111
106
108
104
102
98
100
113
112
108
112
106
105
101
98
98
104
102
102
98
100
98
103
102
101
96
93
93
93
103
109
107
108
115
117
120
119
118
114
125
134
126
119
119
121
121
112
105
108
105
100
107
115
109
106
103
110
106
110
111
107
113
110
110
110
109
106
104
101
97
98
98
103
104
106
101
101
103
108
102
99
102
95
103
116
114
108
105
107
104
100
104
100
116
112
119
118
116
111
106
111
107
102
97
95
104
100
100
102
102
100
100
95
92
95
94
103
102
100
97
100
100
100
98
96
93
97
108
105
109
105
99
100
104
104
96
103
99
109
107
100
97
96
96
103
100
96
108
117
115
112
116
112
110
115
118
123
129
120
118
113
112
111
113
110
115
119
120
113
112
109
108
105
104
107
104
106
110
110
112
113
110
108
105
104
102
123
118
118
119
109
105
109
111
106
111
111
111
107
100
98
96
98
97
104
100
101
97
95
97
97
98
108
105
114
107
105
107
107
105
115
118
122
120
114
109
111
117
111
114
121
140
136
132
125
117
133
128
132
129
128
120
116
115
118
114
113
118
117
115
112
108
107
100
107
98
110
104
107
109
112
110
108
107
123
119
115
110
107
102
111
110
113
130
121
115
107
103
103
107
104
109
108
103
101
103
104
101
100
108
105
112
108
105
108
109
105
110
120
118
118
115
117
113
110
104
102
116
119
114
111
106
103
99
97
95
112
113
111
104
104
100
98
94
92
102
110
111
106
104
100
97
94
94
99
118
123
116
108
104
102
99
101
113
108
117
114
115
109
108
107
108
113
107
124
123
123
115
110
122
114
109
110
110
110
107
107
106
120
115
114
115
114
111
104
109
120
123
117
112
115
113
118
115
114
111
115
110
107
122
113
117
113
110
109
119
116
120
117
117
107
117
106
114
116
136
130
124
126
140
144
155
177
167
155
147
142
135
129
130
127
148
150
139
137
138
140
138
155
160
153
143
141
143
151
143
145
140
143
136
126
130
129
140
134
136
128
124
133
148
147
148
157
150
141
135
132
127
126
132
129
127
125
132
127
127
121
136
137
138
147
152
155
162
183
196
201
210
232
238
261
253
253
255
264
266
255
282
293
285
289
288
268
284
274
276
269
286
277
281
264
280
268
252
242
259
260
256
260
265
252
268
249
245
257
259
268
247
232
247
235
233
244
224
210
202
188
200
182
174
177
167
165
153
155
146
139
130
141
144
145
138
142
137
133
138
151
143
145
156
180
174
185
172
165
153
163
152
146
141
145
139
132
130
128
134
135
131
124
123
115
113
124
116
109
107
103
105
101
101
99
98
94
105
107
105
98
102
105
104
99
95
93
93
112
128
122
120
114
106
111
111
113
109
105
101
105
102
117
107
106
104
104
102
102
99
96
92
100
111
116
110
111
104
109
106
101
101
98
118
114
109
102
100
101
96
98
111
107
105
105
104
102
112
105
101
95
94
91
93
91
102
98
96
90
89
88
85
85
90
97
97
100
123
125
118
111
106
101
95
97
90
90
93
91
98
95
89
93
91
94
92
89
90
92
96
101
102
105
102
97
96
89
89
89
106
110
107
100
103
101
98
96
96
96
109
113
112
113
106
99
96
92
90
86
89
105
101
104
114
112
111
108
102
105
101
113
113
107
117
121
115
115
108
102
116
113
116
117
109
107
109
104
95
95
104
113
122
118
116
113
110
104
102
107
108
104
105
101
102
100
106
100
97
94
97
102
110
103
102
96
105
100
103
104
98
111
109
108
105
99
98
117
117
111
108
104
109
102
97
98
95
102
99
109
116
115
110
118
114
109
104
102
98
95
101
100
97
94
100
101
98
92
92
88
85
83
88
91
91
90
88
83
83
81
84
101
108
113
113
129
126
116
108
110
108
106
103
101
104
100
93
91
103
101
104
101
105
102
102
100
103
110
107
102
112
106
103
102
100
106
100
98
94
103
101
100
96
95
104
104
99
95
103
105
109
106
105
107
104
100
102
108
106
100
101
98
97
97
100
102
112
107
105
99
100
96
97
109
107
109
111
106
101
97
101
102
97
110
106
102
104
101
103
105
107
114
108
105
107
102
98
103
99
104
103
105
99
108
108
103
106
102
100
99
97
105
104
112
106
113
107
101
100
96
89
85
84
93
94
95
96
94
100
94
90
87
85
83
96
92
92
90
90
89
89
88
88
98
107
115
107
103
98
116
122
120
135
132
122
119
111
123
114
111
109
118
110
104
105
104
96
96
112
107
112
112
108
113
110
103
100
96
108
106
101
101
104
108
102
98
96
90
87
95
94
92
92
91
95
89
85
84
84
82
107
101
105
106
104
99
95
98
99
112
106
110
104
100
100
100
97
101
99
110
116
113
112
113
109
110
105
103
99
116
112
112
109
105
103
103
109
104
107
107
110
105
102
97
95
94
94
94
97
97
98
95
97
94
98
98
100
92
115
109
110
107
106
97
95
93
93
92
89
82
92
90
92
93
90
88
85
85
87
86
88
94
89
83
81
80
82
81
80
82
83
98
98
99
96
92
86
86
83
82
82
84
93
95
95
88
92
91
89
88
87
86
85
84
82
95
107
101
102
102
98
91
95
90
89
106
102
102
103
101
104
105
104
97
92
94
96
98
108
104
100
102
98
100
101
101
101
97
91
102
100
96
90
85
83
89
84
84
81
92
99
101
98
94
97
99
100
98
93
86
105
104
103
108
108
101
97
92
91
87
90
88
112
107
105
99
96
93
96
94
98
95
109
105
101
95
100
94
97
94
93
94
106
114
110
105
106
106
103
99
97
94
92
105
103
110
102
99
99
100
95
93
97
102
97
96
96
94
91
89
88
89
93
100
102
98
98
93
94
92
88
82
88
88
103
97
98
94
101
100
104
96
93
98
103
105
107
109
107
105
99
101
108
110
104
102
107
112
109
106
104
105
105
102
100
96
99
105
103
102
94
102
97
98
96
92
91
88
82
86
97
96
103
104
99
98
94
90
89
91
97
96
95
91
91
95
92
96
91
98
96
96
95
89
86
81
96
94
95
89
87
86
93
91
91
97
94
90
99
107
100
101
101
111
107
105
100
99
94
100
108
115
108
103
99
107
110
105
99
97
90
105
101
107
105
104
101
99
93
92
89
87
98
97
99
100
101
99
98
96
108
108
106
105
107
104
99
96
91
86
81
100
94
92
92
100
103
97
95
91
93
91
96
91
88
93
99
95
108
105
101
100
99
101
98
108
111
108
109
116
108
103
102
101
100
105
101
97
103
100
98
92
91
91
91
104
107
104
109
106
101
98
95
92
96
90
96
94
91
88
84
82
86
91
97
94
101
94
91
94
92
91
88
90
88
95
95
100
96
95
90
90
86
96
98
98
99
95
93
101
103
103
98
93
100
105
97
94
93
95
89
87
89
105
102
94
94
90
85
84
92
91
90
100
103
97
91
95
96
94
92
92
109
111
113
107
103
103
103
97
97
101
114
108
116
111
107
116
115
104
103
97
98
100
99
95
104
103
101
106
102
104
98
95
97
105
100
97
101
99
102
101
100
106
100
100
95
101
111
107
109
104
107
126
123
114
103
102
103
109
105
99
100
110
108
105
103
98
94
94
99
104
114
106
103
104
100
96
95
101
108
113
105
98
97
94
96
96
97
99
107
111
109
108
102
97
95
94
100
97
103
98
93
91
87
85
85
88
85
91
92
87
86
88
88
84
84
86
86
84
100
97
94
97
95
90
86
91
91
93
92
92
99
98
100
96
93
87
87
87
93
100
100
98
94
92
93
92
90
86
86
83
84
124
118
111
108
102
97
100
111
105
99
105
111
109
108
109
110
102
104
101
100
111
105
102
101
98
93
108
102
94
89
94
99
95
97
100
109
123
125
116
116
114
114
122
122
126
127
115
110
100
97
94
107
124
124
114
108
102
99
94
101
102
122
113
112
106
100
98
95
106
102
104
115
107
101
96
91
100
95
104
109
103
98
94
90
92
96
95
95
100
93
94
91
94
94
101
104
99
102
101
97
95
94
88
86
100
99
98
104
102
101
101
98
95
94
88
94
102
113
120
132
163
199
202
208
234
238
285
304
335
355
358
385
386
398
371
376
367
345
329
329
331
313
340
331
311
307
309
300
274
270
279
316
337
337
319
309
300
316
310
309
315
304
289
286
275
272
272
306
318
321
306
281
269
301
284
292
291
308
292
295
277
260
245
253
245
236
282
279
270
251
247
249
244
240
295
267
250
229
213
191
175
160
156
148
138
128
120
115
113
107
103
98
95
90
88
99
109
112
105
101
98
96
96
96
94
94
105
106
98
100
97
95
90
87
86
86
107
109
102
100
97
116
114
110
109
111
116
111
107
107
102
113
117
115
124
117
115
118
114
117
116
114
128
118
115
112
111
106
103
99
97
107
122
116
115
110
105
111
102
93
92
97
102
102
98
91
88
85
87
90
91
101
105
112
109
111
104
103
108
105
108
118
109
109
99
96
92
96
92
104
97
102
104
101
97
94
94
91
94
90
107
104
106
100
96
90
95
94
96
95
102
96
91
100
97
93
89
85
84
82
83
88
93
95
91
90
102
97
95
96
93
90
95
97
92
91
105
100
96
97
98
99
116
115
132
126
119
113
107
106
100
100
100
100
104
106
101
103
100
98
93
89
83
97
100
97
94
89
90
97
108
106
115
111
108
112
105
108
103
94
108
104
101
106
100
115
113
106
101
96
92
93
94
88
87
92
97
102
100
96
92
93
95
93
102
103
102
105
104
97
92
91
92
92
89
88
100
98
106
100
97
94
91
88
85
84
84
89
93
97
98
96
94
94
94
91
89
87
96
95
95
93
94
90
93
88
93
98
104
109
107
107
107
107
104
99
98
97
97
110
114
113
108
109
102
98
91
89
86
86
94
94
109
114
105
104
99
103
98
94
91
92
88
93
106
108
103
99
98
98
95
94
93
99
94
95
106
102
102
100
102
98
102
101
98
98
91
90
101
97
97
93
92
96
95
102
110
109
106
123
116
109
109
111
109
107
106
104
96
111
104
100
95
93
91
88
85
92
91
91
107
103
98
97
92
95
96
94
89
96
96
96
93
111
117
117
114
115
107
103
99
94
97
106
113
110
107
103
103
97
93
88
87
100
110
105
110
104
113
110
103
105
104
97
91
93
108
102
101
101
99
103
100
102
100
99
98
109
110
104
102
104
106
102
96
98
91
91
119
114
107
103
103
106
104
102
108
110
114
107
108
104
100
97
107
102
105
103
110
109
108
102
101
94
92
89
91
84
89
86
97
95
92
86
84
82
85
85
89
88
87
99
97
94
91
90
107
100
106
104
100
113
107
108
113
108
105
103
101
101
102
107
105
105
107
104
97
97
92
90
89
85
86
92
113
112
109
104
101
97
95
92
90
88
92
103
102
100
98
98
96
89
88
85
91
96
113
103
101
98
97
94
90
88
96
101
96
94
103
102
97
92
87
95
91
88
82
96
98
96
101
101
99
100
98
93
88
85
85
83
79
90
90
92
88
86
93
92
92
92
93
90
91
95
103
105
102
100
95
93
90
86
85
91
92
107
100
94
95
97
101
97
95
95
98
107
105
115
110
105
101
98
95
96
94
96
100
97
93
89
87
87
83
82
86
92
87
99
96
96
93
93
92
95
89
91
92
94
93
95
101
103
95
91
88
86
81
83
85
84
98
96
98
92
89
86
85
81
83
86
83
98
96
100
106
104
102
94
96
91
91
88
98
115
113
114
111
114
112
107
100
100
103
107
109
118
110
106
101
101
97
96
92
93
92
93
92
90
89
100
92
88
89
89
91
93
88
89
94
88
104
101
110
104
101
99
102
100
101
94
90
92
98
94
93
95
96
91
90
91
91
87
87
83
84
82
80
85
94
91
86
85
88
88
86
86
85
87
89
87
86
85
82
81
91
90
91
89
85
81
76
74
71
71
69
84
82
82
85
83
83
87
85
95
97
93
91
89
89
87
86
82
81
83
85
83
80
77
78
78
80
81
83
83
83
84
103
108
108
122
129
143
158
191
192
203
221
220
242
291
353
340
335
327
333
329
352
350
338
332
357
338
358
371
358
387
374
399
415
442
411
428
395
408
407
404
399
374
373
350
370
341
356
372
342
334
318
317
349
329
314
287
289
281
281
271
261
254
255
246
247
233
225
247
246
244
223
228
220
218
201
200
181
188
188
196
199
194
181
166
151
139
132
131
134
127
142
136
131
139
133
125
118
110
132
139
136
162
148
137
129
124
136
128
146
138
131
125
124
115
114
110
114
117
125
122
120
124
122
118
113
113
109
116
116
122
124
116
111
107
105
102
99
104
125
123
128
127
116
110
103
100
117
117
117
114
108
113
114
110
103
100
113
122
119
112
103
104
99
94
90
89
85
85
93
106
106
105
104
95
90
88
95
102
101
93
99
95
92
91
91
90
90
88
88
82
87
93
99
104
104
96
93
87
85
91
88
107
120
120
114
108
102
98
98
102
112
109
105
101
92
88
82
82
87
97
112
109
105
103
97
93
91
98
95
100
113
111
108
101
97
91
88
91
91
89
103
108
103
96
96
94
93
89
86
81
92
98
99
98
101
95
105
102
95
91
93
107
108
100
100
96
97
96
97
93
106
109
111
109
113
112
108
99
98
92
89
91
115
114
106
116
109
103
97
93
92
93
107
118
110
103
100
100
99
103
112
106
104
117
113
106
109
106
104
109
102
102
120
116
117
115
110
104
100
96
97
96
110
111
104
99
99
94
90
88
103
109
113
107
110
111
108
104
99
105
110
113
106
106
101
100
93
92
108
115
119
114
113
110
105
102
95
101
94
97
96
97
98
94
95
95
113
113
107
104
105
105
103
101
96
112
106
116
118
114
112
106
102
108
104
95
93
104
110
103
101
96
105
100
97
96
102
106
102
99
97
101
103
100
99
98
95
96
93
91
102
107
109
106
104
103
99
99
106
104
99
106
112
105
100
98
95
89
87
93
91
94
93
89
91
89
89
87
93
94
109
117
114
110
116
109
100
97
94
101
101
113
111
112
106
100
93
89
91
91
102
106
106
110
107
105
100
98
95
91
88
97
94
99
95
95
98
100
95
92
102
99
106
104
102
100
99
96
95
105
101
98
96
98
98
95
100
96
110
105
101
100
107
107
102
96
94
91
109
107
104
106
100
98
101
96
90
94
90
86
88
100
101
99
95
91
88
87
83
93
91
90
101
109
105
106
103
101
98
97
95
95
98
92
95
107
100
93
89
89
86
81
79
80
79
85
92
89
84
86
97
94
89
87
91
91
88
91
103
113
105
99
103
100
95
92
85
80
78
79
79
92
89
88
87
88
92
90
86
86
89
92
105
101
97
97
93
91
86
86
90
93
108
111
103
100
92
96
95
95
93
96
107
106
103
109
106
101
101
103
98
109
101
100
108
105
103
103
101
94
95
88
93
98
106
98
98
91
91
85
84
89
107
101
104
107
102
105
106
101
96
108
106
102
95
97
97
96
92
90
98
98
106
101
95
99
93
90
92
92
88
86
91
90
103
98
93
96
92
93
89
94
95
93
89
90
98
105
98
92
89
84
81
78
80
78
80
84
90
88
85
82
95
92
97
97
96
89
90
82
84
81
87
90
98
96
94
94
91
87
83
80
82
83
80
95
99
98
94
89
90
91
86
83
80
83
79
79
108
105
98
94
88
91
85
90
87
84
98
98
103
99
96
91
88
89
91
88
94
100
109
104
98
93
91
89
88
88
90
91
89
87
86
95
89
86
92
88
84
86
86
85
90
89
93
97
110
114
114
109
103
100
97
97
96
98
106
103
99
99
95
100
102
99
104
106
109
108
107
104
108
103
98
105
105
100
106
105
100
108
111
104
99
126
117
114
112
111
106
102
97
94
93
104
104
106
103
97
103
105
110
114
107
100
100
100
102
103
104
102
99
97
94
95
110
113
109
105
106
101
102
113
111
110
103
102
101
98
91
93
102
102
105
103
101
101
99
95
97
103
106
101
98
96
95
96
96
91
93
103
99
99
97
94
113
104
104
98
100
93
90
85
86
84
93
101
102
98
95
96
92
91
93
96
95
107
111
105
101
101
100
102
102
99
96
92
87
97
97
96
97
97
99
95
90
91
93
100
102
105
103
102
100
96
98
93
103
99
95
98
100
130
124
114
113
112
107
102
96
94
93
98
94
87
99
100
104
98
95
88
87
84
88
86
89
94
91
95
92
91
87
87
89
93
91
91
93
105
100
99
99
100
97
94
89
98
100
114
124
115
113
113
107
103
98
98
98
95
92
91
88
87
87
82
100
112
108
103
98
91
90
89
89
87
84
89
89
84
85
98
97
93
96
97
104
107
104
97
96
112
112
116
114
113
111
108
120
126
122
124
124
133
151
169
163
176
182
177
172
175
162
163
157
151
167
161
207
197
213
200
188
194
205
207
210
207
206
204
199
205
210
203
197
185
202
196
195
220
240
236
236
234
248
224
215
232
217
216
204
188
194
192
187
188
193
181
172
158
153
145
170
176
174
165
151
144
139
131
122
117
108
109
123
131
121
112
122
116
116
111
109
111
109
114
112
107
116
115
112
115
127
128
134
134
133
130
132
136
139
130
133
124
119
111
116
129
116
110
109
114
118
116
114
108
111
112
105
106
106
106
106
114
112
112
106
101
95
94
91
96
96
99
99
94
92
90
88
86
85
82
86
87
86
96
111
105
107
105
100
93
90
87
97
89
90
90
99
103
98
94
95
91
88
88
89
84
93
105
101
95
88
83
91
86
88
91
100
102
111
106
99
100
102
98
94
91
86
88
87
106
105
100
100
98
96
94
91
98
96
93
89
83
80
99
106
100
97
91
93
92
91
88
85
85
88
96
93
96
94
88
85
83
84
82
80
75
86
101
101
99
95
90
86
82
81
83
85
87
98
97
91
88
83
80
76
77
79
76
83
82
78
85
84
85
97
93
86
85
81
87
81
85
83
84
80
80
101
97
91
93
92
87
85
84
83
79
77
79
83
80
95
94
92
84
81
79
79
89
88
86
85
83
89
84
99
93
88
81
85
84
82
79
78
79
78
74
74
89
86
83
83
87
90
93
97
91
87
95
91
88
82
81
78
78
73
73
75
75
70
71
84
79
75
72
77
76
82
82
78
76
72
72
86
84
82
80
78
74
77
75
76
74
78
77
83
80
78
75
73
79
81
79
77
76
77
76
88
93
90
84
84
81
79
79
78
78
85
89
88
83
80
81
85
83
80
84
85
99
93
93
87
85
80
80
79
81
88
95
90
89
84
87
82
78
77
77
84
88
85
83
83
79
79
80
78
74
72
93
91
88
85
81
86
83
82
78
86
97
92
90
91
91
90
86
85
82
85
85
109
100
95
94
91
88
86
87
86
86
83
88
91
86
83
88
89
88
84
82
79
80
90
92
87
83
79
75
82
89
87
82
104
99
94
89
86
82
79
76
84
85
98
93
89
85
83
81
77
75
78
77
73
75
79
97
92
91
88
86
84
81
84
86
86
100
93
89
86
87
88
86
84
86
93
92
98
94
88
85
82
81
79
78
74
75
81
88
82
82
80
78
74
74
72
93
88
86
81
93
91
85
83
82
80
78
88
86
91
85
86
82
80
77
79
78
87
87
86
80
80
78
78
76
76
74
71
69
69
70
70
65
67
74
83
81
87
85
81
77
73
73
71
70
74
75
73
74
74
78
90
86
82
83
79
78
76
75
78
87
84
82
76
76
82
86
82
85
83
81
77
78
76
76
74
72
74
94
91
88
88
86
84
80
82
79
80
75
76
75
84
86
84
79
85
80
84
79
81
79
89
82
80
80
88
82
80
84
83
82
78
80
78
81
81
79
89
85
81
82
77
79
76
76
74
82
78
75
72
74
74
73
69
70
82
85
82
83
81
83
81
81
80
80
80
80
83
88
86
82
80
80
81
76
75
75
75
77
77
75
81
85
82
77
81
77
78
77
84
84
81
77
76
73
71
70
67
69
73
75
88
85
90
87
83
84
87
90
92
91
85
80
75
74
75
74
73
80
94
90
89
84
78
76
74
75
73
75
72
82
88
88
90
89
88
86
84
82
87
94
92
92
89
84
82
81
82
78
79
93
93
88
89
86
83
78
82
82
81
78
78
77
78
91
92
94
101
130
146
137
124
116
112
109
102
101
104
107
112
105
100
93
90
90
83
88
82
92
100
96
93
88
87
87
89
85
93
98
98
94
94
90
95
94
91
92
91
97
108
103
106
103
100
97
99
104
99
100
109
106
101
98
98
97
98
109
107
106
107
100
100
104
102
98
116
115
113
107
101
101
94
90
113
115
111
115
111
110
123
127
121
119
115
109
110
117
113
108
108
120
111
111
111
120
118
127
120
112
106
103
109
102
102
105
99
99
97
95
106
108
111
103
105
104
103
105
108
106
128
118
110
105
105
105
105
103
97
103
99
108
108
102
99
98
93
97
93
93
88
95
90
98
94
92
87
88
86
84
88
91
93
89
86
84
92
101
104
100
101
101
103
96
91
87
86
87
87
86
103
102
99
99
94
91
88
91
89
90
90
85
93
89
88
84
85
88
90
85
82
81
80
79
75
85
90
104
100
99
98
93
88
86
83
93
96
107
99
94
89
85
87
90
92
91
108
106
123
113
105
99
94
89
88
85
84
81
91
101
106
101
101
93
92
91
92
97
91
93
89
88
95
95
95
91
88
94
92
106
99
95
89
83
80
80
87
90
97
95
98
93
87
86
83
83
82
103
98
97
93
92
90
87
86
83
76
77
76
76
73
82
79
78
77
78
76
76
73
70
69
69
77
93
92
89
89
95
95
89
88
84
88
83
97
99
95
94
93
93
89
85
85
80
78
76
74
74
76
87
82
85
83
82
78
78
74
76
74
72
70
98
99
95
89
91
87
88
82
80
76
78
74
75
71
85
88
86
82
81
76
81
83
90
85
81
78
77
74
71
72
85
84
83
82
77
76
74
75
76
77
78
77
74
74
76
77
78
93
90
86
88
87
84
78
79
79
82
86
87
87
86
84
84
81
79
88
88
86
84
78
81
77
78
75
82
77
81
78
80
77
74
70
78
84
80
82
87
83
81
85
82
80
77
77
77
79
81
84
83
82
79
77
76
75
71
72
70
70
78
77
80
78
73
73
68
67
66
72
70
79
79
79
75
74
72
78
88
88
86
86
82
80
78
77
78
74
74
73
72
90
85
80
81
86
84
84
86
84
81
83
83
84
94
87
92
116
118
114
106
99
93
88
85
85
85
86
84
83
80
81
79
80
76
80
78
76
71
74
77
75
78
77
78
78
74
76
78
82
82
82
79
79
78
85
86
83
79
74
72
69
69
69
74
74
73
71
74
71
73
70
71
72
74
72
79
80
84
80
78
75
73
72
73
70
68
69
75
72
69
67
69
67
64
63
67
66
67
69
70
69
69
69
65
68
66
72
69
71
71
72
87
85
84
83
82
85
84
83
82
83
80
77
80
79
81
80
80
78
80
78
80
81
82
77
80
76
76
75
81
79
78
74
75
78
84
84
83
79
80
81
77
75
73
72
71
74
74
76
76
74
71
80
81
80
78
77
77
80
79
78
77
76
83
85
81
80
76
78
79
80
83
84
86
82
82
82
79
76
73
73
70
69
70
69
69
69
68
67
68
73
73
76
73
74
75
76
77
78
77
86
90
92
87
83
81
81
80
75
74
81
79
80
79
81
80
79
77
78
79
85
86
85
86
87
82
78
73
73
74
72
74
75
73
77
73
75
71
76
74
75
75
71
72
69
68
67
71
74
72
75
75
75
77
74
75
77
78
81
81
85
92
88
87
83
84
79
79
79
82
80
80
78
79
79
82
87
88
86
87
90
87
83
79
75
74
79
81
80
78
76
78
79
77
79
80
76
75
87
90
102
95
90
85
92
92
96
94
91
87
90
111
108
103
101
99
93
105
105
108
102
104
98
114
107
106
105
113
116
110
112
122
123
129
128
122
115
112
114
120
113
113
111
106
107
104
118
120
112
115
113
109
104
101
97
105
107
108
107
104
98
97
98
98
108
106
100
109
103
101
98
94
91
108
102
98
98
94
92
94
88
93
105
105
97
100
96
92
88
88
102
114
110
108
110
103
96
99
94
120
112
109
107
104
98
98
96
106
113
106
103
100
103
100
99
94
108
112
107
100
99
93
100
94
97
96
106
107
105
101
102
105
98
97
95
91
92
100
103
100
99
107
106
100
95
98
98
109
106
106
99
97
92
93
94
95
110
111
104
100
94
97
101
97
96
100
105
106
106
99
98
104
103
99
101
107
111
107
104
98
94
92
100
95
93
89
95
99
108
106
102
98
93
94
92
87
97
94
97
98
100
111
106
99
92
90
86
89
93
99
95
90
87
89
88
88
83
90
83
82
101
101
111
115
106
104
99
94
92
85
104
107
101
109
106
101
94
89
85
85
87
82
84
88
88
82
83
85
89
88
92
87
85
81
84
80
79
86
87
86
83
85
82
78
77
76
73
83
80
79
76
76
78
76
74
74
72
78
76
76
76
79
75
78
77
79
87
90
87
88
84
82
86
88
90
90
87
83
81
79
80
76
76
75
90
85
83
83
84
83
82
77
80
79
79
76
76
78
78
75
71
77
74
75
78
79
78
75
73
73
73
75
75
75
80
80
79
77
75
75
75
75
73
75
76
79
79
87
84
82
81
82
78
80
80
74
74
71
69
70
72
70
71
69
67
66
72
74
80
78
77
75
75
75
74
72
71
69
70
66
65
64
69
74
77
73
79
80
85
80
85
83
84
85
84
77
81
84
79
78
78
80
79
81
82
83
81
83
86
87
83
86
83
85
84
82
77
80
75
75
76
79
77
88
85
93
96
91
86
82
78
81
86
95
94
91
89
83
83
84
85
84
89
90
91
88
88
84
88
85
86
79
80
78
76
72
81
80
86
83
80
76
72
74
75
76
75
74
74
76
78
88
84
81
76
72
67
66
65
65
66
69
74
78
75
88
82
80
76
77
76
78
77
77
76
81
80
83
83
82
79
78
78
76
76
74
72
69
76
74
76
71
72
73
78
76
76
72
71
76
76
75
75
77
82
86
83
80
78
73
77
76
79
81
80
87
97
97
94
90
86
86
86
85
82
98
92
88
87
87
89
85
83
81
77
79
73
76
78
80
79
79
78
80
86
89
86
94
91
84
79
76
86
91
96
93
93
97
95
93
91
89
86
95
94
90
89
91
94
96
93
94
94
93
91
85
85
83
84
85
80
82
80
83
84
83
88
86
93
93
91
90
84
83
87
85
81
87
88
84
89
86
86
91
86
89
90
