74
74
73
73
73
73
73
73
72
73
72
72
71
72
71
72
71
71
71
71
71
71
71
71
72
72
72
72
73
72
73
73
73
73
73
72
73
72
72
72
72
71
71
70
71
70
71
70
70
70
71
70
70
70
70
70
70
70
70
70
71
72
71
72
71
72
72
72
72
73
72
73
72
72
72
72
72
72
71
71
71
71
70
71
70
70
70
70
70
70
70
70
70
70
71
70
71
71
72
72
72
72
72
72
72
72
73
72
72
71
72
71
72
71
71
70
71
70
71
69
70
69
70
69
69
69
69
70
69
70
70
70
70
71
71
72
71
72
72
72
72
72
72
72
72
72
72
72
72
72
71
72
70
71
70
71
70
70
70
69
69
69
69
69
69
69
70
70
70
71
72
71
72
73
73
73
74
74
75
75
76
76
77
77
78
78
79
79
80
79
80
80
81
81
82
82
83
84
84
85
86
87
87
89
90
91
92
93
93
95
95
96
96
96
96
96
96
97
96
96
95
97
95
96
95
96
95
96
96
96
96
95
94
94
94
94
94
94
93
92
93
93
94
94
94
94
94
93
93
91
91
90
91
89
89
87
87
86
87
86
86
85
86
86
85
85
85
86
86
86
87
87
87
87
88
88
88
89
89
89
88
89
88
89
88
88
87
88
86
88
86
87
86
86
85
85
85
85
84
84
83
83
83
83
85
84
85
84
85
85
86
85
87
87
87
87
87
87
87
86
86
85
86
85
86
84
86
85
85
84
85
84
84
84
84
83
83
83
83
83
84
84
84
85
85
85
85
85
85
85
85
85
85
85
84
84
83
84
83
84
83
84
83
83
82
82
82
82
81
81
81
82
82
82
83
82
83
82
83
83
84
84
84
84
84
84
84
84
84
83
84
83
83
82
83
82
83
82
83
82
83
82
82
82
82
82
81
82
82
83
83
83
84
85
85
86
86
87
86
86
84
85
83
83
82
82
81
82
81
83
82
84
83
85
85
87
87
88
89
90
90
91
92
92
93
94
96
96
97
98
98
98
99
99
99
99
99
99
99
97
98
97
97
96
97
96
97
96
97
96
96
96
97
97
97
98
98
99
99
100
101
102
103
104
103
104
104
105
105
105
105
105
105
106
105
106
105
106
105
107
108
108
107
109
110
110
111
111
112
113
114
115
116
116
116
115
115
114
115
113
112
109
107
102
102
100
103
99
102
100
98
96
99
102
102
104
99
98
94
99
107
112
111
113
110
114
111
115
119
123
126
126
128
134
136
136
136
144
146
149
148
149
151
152
151
152
151
151
150
152
152
151
153
154
152
156
155
153
153
149
145
144
147
148
145
141
141
136
138
136
138
136
136
131
132
132
134
133
133
133
136
137
138
138
140
139
141
140
140
140
141
142
142
143
143
144
142
143
141
142
140
141
140
141
140
141
139
140
139
139
139
139
138
138
138
136
134
133
131
129
129
126
125
121
120
116
117
113
113
109
109
107
108
107
108
107
108
107
108
107
107
108
108
108
109
110
110
110
111
111
110
111
110
111
110
112
110
112
111
113
112
113
112
114
113
114
113
114
114
114
115
115
116
116
116
117
117
117
116
115
115
114
113
111
112
110
110
108
108
106
106
104
104
103
103
102
102
102
102
103
103
105
105
106
106
106
107
107
108
109
109
110
109
111
110
111
110
112
110
112
110
112
111
112
111
111
111
111
111
111
112
112
112
112
112
112
111
111
111
110
109
108
108
107
107
105
106
104
105
103
103
102
102
102
101
101
101
102
102
103
103
103
104
104
104
105
105
105
105
106
106
107
106
107
106
107
105
106
105
106
105
106
105
105
105
105
105
105
105
105
106
106
107
107
108
108
108
108
108
107
107
106
106
104
104
102
102
100
100
98
98
97
97
96
97
97
97
96
95
93
90
88
85
84
81
80
78
77
75
73
71
70
67
67
65
64
63
64
61
62
60
61
59
60
58
60
59
59
58
59
58
58
59
58
58
57
58
57
58
57
58
56
58
57
58
57
58
57
57
56
57
56
56
55
56
55
56
54
55
54
54
53
54
53
54
53
53
53
54
54
53
54
53
54
53
54
53
55
54
55
55
56
55
56
56
57
56
57
56
59
57
59
58
61
60
62
61
62
60
61
61
62
64
64
64
64
65
63
65
67
69
67
67
66
68
70
78
81
90
93
94
88
88
89
94
101
111
109
108
104
101
108
111
116
113
120
119
112
107
111
111
116
116
123
115
116
113
112
111
113
108
107
104
111
110
115
118
122
122
119
116
115
115
119
118
116
115
112
111
109
105
107
107
106
105
105
106
106
106
106
109
108
110
108
111
110
112
110
114
112
111
109
110
110
108
106
104
104
103
100
98
97
94
93
91
89
86
84
82
79
77
76
73
73
70
73
69
69
67
68
66
66
64
65
64
64
62
63
63
62
63
62
62
62
63
62
64
63
64
64
67
67
68
67
68
70
73
74
77
77
79
79
81
79
82
81
83
82
84
83
84
84
85
84
85
84
85
86
85
86
86
87
87
88
88
88
88
89
89
89
89
88
88
89
87
89
87
88
87
88
87
88
86
87
86
87
86
87
87
88
89
89
90
90
91
91
92
93
93
93
94
94
94
94
94
94
94
93
94
92
93
92
93
91
93
92
93
91
92
90
91
90
91
90
90
89
90
90
91
91
91
92
92
93
92
93
93
94
93
93
92
93
92
92
90
91
90
91
89
91
89
90
88
89
88
89
88
88
88
89
89
89
90
91
91
91
92
92
92
93
93
93
93
92
93
93
93
92
92
91
92
90
91
89
91
89
90
88
89
88
89
88
89
88
89
89
89
90
90
90
90
91
91
92
92
92
92
92
91
92
91
91
90
91
90
91
89
90
89
90
88
90
88
89
88
89
88
88
88
88
88
88
89
90
90
89
90
90
91
91
91
91
91
91
91
90
90
89
90
89
90
88
89
88
89
87
88
87
88
87
88
87
89
88
88
88
89
89
89
89
89
90
90
90
90
90
89
89
89
90
89
90
89
89
88
89
88
89
87
88
87
88
87
87
86
86
86
87
86
86
87
87
88
87
87
88
89
88
90
90
90
90
90
90
90
89
90
89
90
88
89
87
89
87
88
86
88
87
87
87
87
86
86
86
86
86
86
87
87
88
88
89
89
89
89
89
88
89
88
89
88
89
88
89
87
88
86
88
86
87
85
86
85
85
84
84
83
82
82
81
81
81
82
82
82
82
82
82
84
83
82
83
82
81
82
80
81
81
82
82
86
84
87
87
90
93
90
102
107
112
125
138
141
148
147
149
141
149
146
141
142
139
146
152
162
156
155
166
162
167
171
175
170
164
176
179
174
171
165
164
163
179
187
181
182
178
179
180
173
196
192
182
180
178
182
173
166
160
162
153
154
154
144
143
150
149
145
147
140
132
128
124
124
123
116
111
106
104
99
97
94
92
90
89
87
87
86
85
83
82
80
79
77
78
76
76
73
75
74
76
73
74
73
73
71
72
72
72
72
73
75
75
76
77
79
80
81
81
82
83
83
82
82
81
82
80
80
78
79
76
77
75
76
74
75
73
74
73
73
73
74
74
74
74
75
75
75
76
76
77
77
78
77
77
77
77
76
77
76
77
75
76
75
76
74
75
74
76
74
76
74
75
73
74
73
73
74
74
73
73
74
74
75
74
75
75
76
75
76
75
75
74
75
74
75
74
76
75
75
73
75
73
74
73
75
73
73
73
73
73
73
73
73
73
72
73
73
74
74
75
74
75
75
75
74
75
74
74
73
73
72
73
72
74
72
73
72
73
72
73
72
73
72
73
73
73
73
73
73
73
73
73
73
73
74
74
74
74
74
73
73
73
73
73
73
72
73
72
73
71
73
71
72
71
72
70
71
70
71
70
71
70
70
71
71
72
72
72
72
73
73
73
73
73
72
73
72
73
72
72
71
72
71
72
71
72
70
71
70
71
69
70
69
70
69
69
69
70
70
70
70
70
72
71
72
72
72
72
73
73
73
73
73
72
73
71
72
71
72
70
72
70
71
69
71
69
70
69
70
69
68
69
69
69
69
70
70
71
71
71
71
72
71
72
72
73
72
72
72
73
71
72
71
72
70
71
69
71
69
70
68
69
68
69
68
68
68
69
69
69
70
70
71
71
72
71
72
71
72
72
73
71
72
71
71
70
71
69
70
69
70
69
70
69
69
68
69
68
69
68
68
67
67
68
67
68
68
69
70
70
70
71
70
71
71
71
70
71
70
70
69
69
68
70
69
70
68
69
67
68
67
68
67
67
67
67
67
67
68
67
68
68
68
68
69
69
70
69
70
69
70
70
70
70
71
70
70
68
70
68
70
68
69
68
69
68
69
68
68
68
68
67
68
68
67
68
68
68
68
68
68
69
69
69
69
70
69
70
69
69
68
69
68
69
67
69
67
69
67
68
67
68
67
67
66
66
66
66
66
66
67
66
67
67
68
67
68
68
68
68
69
69
69
68
68
68
69
67
68
67
68
66
67
66
66
66
66
65
65
65
65
64
65
65
65
66
65
66
66
67
66
67
67
68
67
68
68
68
68
68
67
68
67
68
67
68
66
67
66
67
66
66
65
65
64
64
64
64
65
65
65
66
66
66
68
67
68
67
68
69
69
68
68
69
70
71
72
70
77
78
78
79
79
81
87
88
91
90
93
101
103
98
101
105
104
101
102
110
111
109
108
111
113
119
122
123
121
122
127
127
123
125
125
126
122
117
118
119
116
123
117
112
110
105
103
103
100
98
97
94
92
88
87
86
84
82
82
81
81
80
79
77
77
73
75
74
74
72
74
72
72
70
70
69
68
67
66
66
65
65
65
66
66
67
66
67
67
67
67
67
66
67
68
68
67
68
67
69
68
68
66
66
64
66
65
65
64
66
65
65
65
64
64
64
65
64
64
64
65
65
65
64
65
65
66
66
66
65
66
66
67
66
67
65
66
64
65
64
65
63
64
63
64
63
64
64
64
64
63
64
63
64
64
65
65
65
65
66
65
66
66
66
65
66
65
66
65
66
64
65
64
64
62
63
62
63
62
63
62
62
62
62
62
63
63
63
63
63
63
63
64
63
64
63
64
64
64
63
64
63
63
62
63
61
63
62
64
62
63
62
62
61
62
61
62
62
62
63
63
63
63
64
64
64
64
64
64
66
65
65
65
65
65
65
64
65
64
64
63
64
62
63
61
62
61
61
61
62
61
62
62
61
61
62
62
62
63
62
63
63
64
63
64
63
64
64
64
63
64
63
64
63
64
62
63
62
63
62
62
61
62
61
61
61
62
61
61
61
61
62
62
62
61
62
62
63
63
64
63
64
64
64
64
64
63
64
63
63
62
63
61
62
61
62
61
61
60
61
60
60
60
60
60
60
60
60
61
60
61
60
61
61
61
61
62
62
62
61
62
61
62
61
62
61
62
61
62
61
62
61
61
61
61
61
61
61
61
61
61
61
61
61
60
61
61
62
62
62
62
63
63
64
63
64
62
63
62
63
62
62
60
61
60
61
60
61
60
60
59
60
59
59
59
59
60
59
61
60
62
61
62
62
63
62
62
62
62
61
61
60
61
61
62
61
61
60
61
60
60
59
60
59
59
59
60
60
60
60
59
60
61
62
61
62
63
79
82
85
106
116
129
167
195
204
200
208
206
211
207
203
192
204
213
212
212
226
232
225
236
247
238
244
247
240
249
233
265
272
261
257
252
236
232
222
226
219
215
208
205
196
198
192
194
186
194
202
219
222
214
205
198
211
222
227
226
214
210
218
206
202
187
172
159
145
132
124
117
112
105
100
92
94
92
90
87
86
83
81
84
81
87
88
86
84
83
81
79
76
75
73
73
71
71
69
68
66
66
65
66
67
67
66
67
65
67
64
65
63
64
62
63
62
63
61
61
60
60
59
60
60
60
61
62
62
62
63
63
62
62
62
62
62
62
63
62
63
62
63
61
61
61
62
60
61
60
60
59
59
59
58
58
58
59
59
60
60
61
61
62
62
63
62
63
62
63
62
63
62
63
62
62
61
61
60
61
60
61
59
60
59
59
59
59
59
59
59
59
60
60
61
60
61
61
62
61
62
62
62
62
62
61
62
61
62
61
61
60
63
62
62
61
62
61
61
61
61
60
60
60
60
59
59
60
59
60
60
61
61
61
61
61
61
61
61
62
61
62
61
62
61
62
61
62
60
61
60
61
60
61
59
60
59
59
59
58
59
59
61
60
61
61
61
61
62
61
61
61
62
61
61
60
61
60
61
59
60
59
60
59
60
59
60
58
59
59
60
59
59
58
58
58
58
59
59
60
60
60
59
60
60
61
60
60
60
60
60
61
60
61
60
61
59
60
59
60
59
60
59
60
59
59
58
58
58
58
58
58
59
59
60
59
61
60
60
60
61
60
60
60
60
59
60
60
60
59
60
58
59
58
59
57
58
57
57
57
57
57
57
57
57
57
56
57
57
58
58
59
58
60
59
60
60
60
59
59
59
60
59
60
59
59
58
59
58
59
58
59
59
59
59
59
58
58
59
58
58
58
59
59
60
59
60
60
61
60
60
60
60
59
60
59
60
60
61
60
60
59
60
59
60
58
59
58
57
57
57
57
57
58
57
58
57
58
58
58
58
59
59
59
59
60
59
60
59
60
61
64
64
71
73
77
79
84
91
92
93
92
91
96
99
103
109
106
106
106
114
111
118
114
111
110
110
105
103
104
103
99
99
95
96
95
97
96
93
93
93
94
91
88
89
85
85
86
94
89
85
87
89
88
88
87
83
84
81
82
79
78
75
76
75
75
72
72
69
70
67
67
65
65
63
64
62
62
61
60
59
60
58
59
59
58
58
57
57
57
58
57
58
57
58
58
59
58
59
59
59
58
59
58
59
58
58
57
57
56
57
55
56
56
56
56
56
55
56
56
56
56
55
56
56
56
56
57
57
58
58
58
57
57
56
57
56
57
55
56
55
56
56
57
56
57
56
57
56
56
55
56
55
56
56
56
56
56
57
56
58
57
58
58
58
58
58
58
58
57
57
57
57
56
57
56
57
56
56
55
56
55
55
54
55
55
55
54
54
55
54
55
55
56
55
56
56
56
55
56
56
56
56
57
56
57
56
57
56
57
56
57
56
57
55
56
54
54
54
54
53
54
53
53
54
54
54
55
55
55
56
55
56
56
57
57
58
57
58
57
57
56
57
57
58
57
57
56
57
56
56
55
56
55
55
55
55
55
55
55
55
56
55
55
55
56
55
56
55
56
55
56
55
56
55
56
56
57
56
56
56
56
55
56
54
55
53
54
53
55
54
54
54
54
54
54
54
54
55
54
55
55
56
55
56
56
57
57
57
57
57
57
58
57
58
57
57
56
56
54
55
54
55
54
54
53
53
54
53
54
53
54
53
54
54
54
54
55
54
55
55
56
55
56
55
56
55
55
54
55
54
54
53
55
54
55
53
54
54
54
53
52
53
53
53
53
53
53
54
54
55
55
55
54
56
54
56
55
55
55
56
55
57
56
56
55
56
55
56
54
55
54
54
54
54
54
53
53
53
53
53
53
53
54
53
53
53
54
54
56
55
56
55
56
55
56
55
56
55
55
54
54
53
54
53
54
53
54
53
53
53
53
53
53
53
52
53
53
54
53
54
53
55
55
56
55
56
55
56
55
56
55
56
55
55
54
55
54
54
53
53
52
53
52
53
53
53
53
53
53
53
53
52
54
53
54
53
54
54
55
54
55
54
55
54
56
55
55
54
54
54
54
53
54
53
53
53
53
53
53
53
53
52
52
53
52
53
52
53
53
54
54
55
54
56
55
57
56
56
55
55
54
55
54
55
53
55
54
55
54
54
54
54
54
54
54
53
53
52
53
52
53
52
54
53
55
54
55
55
55
56
56
55
56
55
55
54
55
54
54
53
54
52
53
52
53
52
52
52
53
52
53
53
52
53
52
53
52
53
53
54
54
55
54
55
55
55
55
56
55
55
54
54
53
53
52
53
52
53
51
52
52
52
52
52
52
52
52
51
52
51
53
52
53
53
54
53
54
54
55
54
55
54
54
54
55
54
55
54
56
55
56
55
56
54
54
55
54
55
54
54
54
54
55
55
55
55
59
64
62
67
68
72
76
74
88
96
140
171
169
161
155
143
131
133
130
127
120
114
112
105
104
103
101
100
97
91
90
85
86
82
88
89
88
88
87
90
91
95
105
107
102
100
96
101
105
110
105
114
119
119
112
111
107
114
111
107
104
108
108
110
104
103
96
95
98
97
98
107
107
103
96
95
91
92
95
96
94
90
84
81
77
75
81
77
74
76
74
71
69
67
66
65
66
65
65
63
63
62
62
61
62
61
61
60
61
60
62
61
61
60
59
58
58
56
57
56
56
55
56
55
55
55
55
55
54
54
53
54
53
55
54
56
55
56
55
57
56
58
57
58
57
57
56
56
55
56
55
56
55
55
54
55
54
55
54
54
54
53
54
53
53
53
55
54
55
55
55
55
57
57
57
57
57
56
56
55
56
55
55
55
55
53
54
54
54
53
54
53
54
53
52
52
51
52
51
52
52
52
52
53
53
54
53
54
54
56
55
56
54
55
54
55
54
54
54
54
54
54
53
55
54
55
55
55
54
54
54
55
54
54
55
54
55
54
55
55
56
56
56
56
56
55
56
54
55
54
54
54
55
54
55
54
55
54
55
54
55
54
54
54
53
53
54
54
53
54
52
53
52
54
54
55
54
55
55
56
55
56
55
55
54
54
53
55
53
54
54
54
53
54
53
54
53
54
53
53
53
53
53
52
53
53
54
53
54
55
55
55
56
56
57
56
56
56
56
55
56
55
56
56
56
55
56
54
55
54
54
54
54
53
53
53
53
53
53
53
52
53
52
53
53
54
54
55
55
55
54
55
54
55
54
54
54
55
54
54
53
54
53
54
53
53
52
52
52
52
53
52
52
52
53
52
54
54
55
54
55
55
55
55
55
55
56
55
56
55
56
55
56
55
55
54
55
54
55
53
53
53
53
53
53
53
53
53
52
53
52
53
53
55
54
55
54
55
54
55
55
55
55
56
55
56
55
56
55
55
54
55
54
54
53
54
54
53
53
53
53
53
53
53
53
52
54
53
54
53
54
54
55
55
55
54
55
54
55
55
55
54
54
54
54
53
53
53
54
53
52
52
53
51
51
51
50
50
50
50
50
51
51
52
51
52
50
50
48
47
46
47
46
46
45
45
44
45
43
43
41
43
41
43
44
53
59
80
77
73
68
64
64
60
57
56
57
54
52
50
50
49
50
49
48
47
49
48
48
46
46
45
44
43
44
44
46
44
46
45
44
43
43
42
41
43
42
42
42
44
46
45
43
43
43
43
44
44
45
47
44
43
43
44
44
44
43
43
43
43
43
43
42
41
39
40
40
42
41
40
39
37
37
36
36
35
36
35
36
35
35
35
36
35
37
36
40
40
41
39
40
40
39
38
38
37
37
37
37
37
38
39
38
37
36
36
35
36
34
34
33
34
34
33
33
34
33
34
34
34
33
33
32
33
33
34
33
33
32
32
31
32
32
33
32
32
32
33
33
32
33
32
33
33
34
32
33
32
33
34
34
33
34
33
34
34
34
33
34
33
34
33
34
33
33
32
32
32
33
33
33
32
33
32
33
33
32
33
32
33
32
33
33
33
33
33
32
33
32
34
33
33
32
33
32
33
33
33
32
33
32
33
32
33
32
32
32
32
33
32
33
32
33
32
33
32
34
35
36
37
38
39
40
41
43
43
45
45
46
46
47
47
48
48
49
48
49
49
50
50
51
50
50
51
51
51
51
51
51
51
51
53
52
53
52
54
54
54
54
55
55
55
54
54
53
54
52
53
52
53
52
52
52
52
52
52
52
52
52
53
53
52
53
51
52
52
52
52
53
53
54
53
55
54
55
55
55
54
55
54
54
54
55
54
55
54
55
54
54
54
53
53
53
53
53
53
53
54
52
53
52
53
53
53
53
54
53
54
53
54
53
54
53
53
52
52
52
53
53
53
52
53
52
52
51
52
51
51
51
50
50
50
51
50
51
51
52
52
54
52
54
53
53
53
53
52
53
52
53
53
53
51
52
51
52
51
52
52
52
51
52
51
51
51
51
51
50
51
50
51
50
52
52
53
52
54
53
53
53
54
53
53
53
54
53
53
53
53
52
52
51
52
52
52
51
51
51
51
51
51
52
51
51
51
52
52
53
52
53
52
53
52
53
53
53
52
53
52
53
52
52
51
52
51
52
52
53
52
52
51
51
51
51
51
50
51
50
51
51
52
51
52
52
53
52
53
53
54
53
54
53
53
53
53
52
53
52
52
51
51
51
51
52
52
52
51
52
51
51
50
50
50
51
50
51
51
51
51
52
52
53
53
53
53
54
53
53
53
53
52
53
51
52
51
52
51
53
51
51
51
51
52
52
52
53
53
53
53
52
53
55
58
56
56
61
61
61
65
68
70
70
73
79
88
95
103
103
102
111
108
106
105
105
105
128
133
138
134
137
132
129
138
150
147
154
151
149
140
147
162
161
151
151
174
163
164
159
174
178
173
178
171
169
171
166
161
160
163
178
176
169
168
164
169
163
153
147
152
149
151
148
146
149
153
145
139
139
138
129
122
120
121
114
106
102
96
95
88
84
82
81
78
77
73
72
68
66
64
62
60
59
58
57
55
55
53
52
53
53
52
52
51
50
50
51
50
50
50
49
50
50
51
51
51
51
52
51
53
53
54
54
55
55
55
56
56
54
54
53
54
53
54
53
53
52
52
51
51
50
50
49
50
49
49
49
49
49
48
49
49
49
49
50
50
51
50
51
51
52
51
52
51
51
50
51
50
51
50
51
51
51
50
51
50
50
50
50
50
50
50
50
50
49
49
49
50
49
49
49
50
49
50
50
51
50
51
50
50
50
51
50
51
50
51
50
50
49
49
49
49
50
49
49
48
48
48
48
47
48
48
49
48
49
49
50
49
50
49
50
50
50
49
50
49
50
49
50
50
50
50
50
50
50
50
50
50
50
49
49
49
49
49
49
50
49
50
49
50
49
50
49
50
49
50
49
50
50
51
49
50
50
51
50
51
50
50
49
50
49
49
49
49
49
49
48
48
48
47
47
47
47
47
48
47
48
48
49
49
50
50
50
49
50
50
51
50
50
49
50
49
49
49
49
48
49
48
49
48
48
48
48
49
48
49
47
48
48
48
48
50
49
50
49
50
50
50
50
50
50
51
50
51
50
50
49
49
49
49
48
49
48
48
48
48
48
48
48
48
49
49
49
49
49
49
50
49
50
49
50
50
51
50
51
51
51
50
50
50
50
49
50
48
49
48
48
47
48
48
48
48
48
49
48
49
48
49
49
50
49
50
49
49
49
50
49
50
49
49
49
49
49
49
48
49
47
48
47
48
47
48
48
48
47
47
48
48
49
48
49
48
48
48
48
47
49
48
49
49
50
49
50
48
49
49
49
49
50
49
49
48
48
48
49
48
48
48
48
48
48
48
48
48
48
49
48
48
48
49
49
49
49
49
49
50
49
50
49
50
49
50
49
50
49
49
48
48
47
47
47
47
47
47
47
48
49
48
48
47
48
47
47
47
48
47
49
48
49
49
49
48
49
49
51
49
50
49
49
49
49
49
49
48
48
48
48
47
47
47
47
46
46
47
47
47
47
48
47
48
48
48
48
49
48
49
48
49
49
49
49
49
49
49
48
48
48
48
47
47
47
48
47
47
47
46
47
47
47
48
49
48
49
49
50
50
51
51
53
52
54
54
55
55
59
62
64
62
63
64
66
67
68
68
68
66
66
68
74
76
81
79
79
82
82
81
83
81
84
91
96
98
97
98
100
104
100
96
95
101
101
101
99
96
95
98
97
99
97
95
94
93
89
87
83
80
82
79
76
74
72
73
75
72
71
72
72
69
69
67
68
67
66
66
65
64
63
64
66
64
63
63
62
59
58
57
55
53
52
51
49
48
48
48
47
48
47
47
46
48
47
47
47
48
48
49
48
48
48
48
47
47
47
48
47
47
47
47
47
47
46
46
45
45
46
45
45
45
45
44
45
45
45
45
46
45
46
46
47
47
46
46
47
46
47
46
46
46
46
46
46
46
46
46
45
45
45
45
45
45
45
45
44
45
45
46
45
45
45
46
45
47
46
47
46
47
46
47
46
46
46
46
46
46
45
45
46
46
46
46
46
46
45
45
46
46
46
45
46
45
45
44
45
44
45
45
46
46
47
47
47
47
47
47
47
46
47
46
46
46
46
46
46
45
44
44
44
44
44
44
44
44
43
44
44
44
44
45
44
46
46
47
46
46
45
46
45
46
45
46
45
45
45
45
44
45
45
44
44
45
45
45
45
45
44
44
44
44
45
44
44
43
45
44
45
45
46
45
46
46
47
47
47
48
48
48
48
47
48
47
47
46
46
46
46
45
46
46
45
45
44
44
44
46
45
46
45
46
45
46
46
47
47
47
47
48
47
47
46
46
45
46
45
46
45
46
45
45
44
45
44
44
45
44
44
44
44
44
45
44
45
44
45
46
47
46
46
46
47
47
47
46
46
46
46
45
46
46
46
45
46
46
45
46
45
44
44
44
43
43
43
43
43
44
43
44
43
44
44
45
44
46
45
46
46
46
45
46
45
46
45
45
45
45
45
45
45
45
44
44
44
44
44
44
44
44
44
44
44
44
44
44
45
45
45
44
45
44
45
45
45
44
45
44
45
45
45
46
46
45
45
45
45
45
45
45
44
44
43
44
44
44
43
44
44
44
44
45
44
45
44
45
45
45
46
46
45
46
46
46
45
46
46
46
45
45
45
45
44
43
43
43
44
43
43
43
43
43
44
43
44
44
45
45
45
45
46
45
46
46
46
46
47
47
47
47
47
47
46
45
46
45
46
45
45
45
45
44
44
45
44
44
43
43
42
43
42
44
43
44
45
46
46
46
45
46
45
46
45
45
44
45
44
44
44
44
44
44
44
44
43
43
44
44
44
44
44
43
44
43
45
44
45
45
45
45
46
46
46
46
46
46
47
47
47
47
47
47
47
46
46
46
45
45
45
45
45
44
44
44
43
45
44
45
44
45
44
45
45
46
45
46
46
46
45
45
44
45
45
45
45
46
46
46
45
46
45
45
45
45
45
45
46
45
45
44
45
44
44
43
44
43
43
43
45
44
45
45
45
45
45
44
45
44
45
45
45
45
46
46
46
46
46
45
45
44
44
45
44
44
44
44
43
44
44
44
45
54
58
72
79
96
110
127
144
180
223
217
215
209
202
212
200
194
225
212
214
215
226
211
217
222
231
220
212
213
225
217
221
206
196
199
199
199
199
201
192
184
187
185
183
174
170
159
149
144
146
150
155
161
159
159
154
148
153
150
151
161
160
163
164
158
150
146
148
156
152
156
145
136
123
121
116
113
107
116
107
102
95
88
84
81
80
77
77
74
71
67
64
61
61
62
61
63
65
67
74
79
81
78
78
82
81
77
74
71
68
66
64
61
59
59
57
56
54
55
54
54
53
53
51
51
52
51
49
51
50
51
50
49
49
50
49
49
49
49
47
48
47
47
47
48
48
48
48
48
48
48
47
47
46
46
46
46
47
47
48
47
47
47
47
47
48
48
48
48
49
49
50
49
50
49
49
49
49
49
49
49
49
48
47
47
46
46
46
46
45
46
45
46
46
46
45
45
45
45
45
45
45
46
47
47
47
47
47
48
48
48
48
48
47
47
47
47
48
48
47
46
47
47
47
47
47
46
47
46
46
45
46
45
47
45
46
45
46
46
47
47
47
47
47
47
48
47
48
47
47
47
47
46
46
46
46
47
46
47
46
47
46
47
45
46
45
45
45
46
45
46
46
47
47
48
47
48
48
48
47
48
47
47
47
47
47
47
46
46
47
46
47
47
47
46
46
45
45
44
45
45
45
44
45
45
46
47
47
47
48
47
47
47
47
47
47
47
48
47
47
46
47
47
47
47
46
47
46
46
46
46
45
45
45
47
45
46
45
46
45
46
45
46
46
46
46
48
47
48
47
47
47
47
47
47
47
47
47
46
46
46
46
46
46
45
45
45
46
45
45
45
46
45
45
45
46
45
46
46
46
46
46
46
47
47
47
47
47
47
48
48
48
48
48
47
47
48
47
47
46
47
45
46
45
45
44
44
45
46
45
46
45
46
46
47
47
47
46
47
46
47
47
47
47
47
47
47
46
46
46
45
45
44
44
44
45
45
45
44
45
44
45
45
46
47
47
47
48
47
48
47
47
47
47
48
48
47
47
47
47
46
46
46
46
46
45
45
45
45
45
45
44
44
44
45
45
46
46
46
45
46
46
47
47
47
47
47
47
48
47
47
47
47
47
47
47
47
47
47
46
46
46
45
45
45
46
46
47
46
48
49
50
51
54
57
64
69
70
72
78
79
78
83
84
91
101
95
96
94
94
91
88
87
90
94
91
89
89
86
86
89
88
92
91
91
88
89
90
88
85
82
81
79
83
89
94
100
97
94
93
91
90
88
89
92
91
91
85
82
79
80
87
98
101
100
98
98
94
89
93
101
99
100
99
95
90
87
99
96
101
99
95
92
87
83
81
78
84
85
90
85
82
82
80
77
79
82
79
76
77
78
79
79
77
83
80
78
76
72
73
75
73
71
68
67
64
63
61
60
58
57
55
55
54
53
51
50
49
49
48
48
47
47
47
46
47
45
45
45
46
45
46
45
46
46
47
45
46
45
46
45
46
46
47
46
47
46
46
46
46
46
46
45
45
45
45
46
45
45
44
45
45
45
44
45
45
45
44
45
45
45
45
45
45
46
47
47
47
47
46
47
47
47
47
47
47
47
47
47
47
47
47
47
48
47
47
47
47
46
46
45
46
45
45
45
46
46
47
47
47
47
47
46
47
46
46
46
46
46
46
47
47
47
47
46
45
46
47
47
46
46
46
46
45
46
45
45
45
47
45
46
46
46
45
46
46
47
46
46
46
47
47
47
47
47
46
46
47
46
46
46
47
46
46
45
45
44
44
43
44
43
44
43
44
44
45
45
47
46
47
46
47
46
47
47
47
47
47
46
46
46
46
47
46
46
46
46
46
46
46
46
45
45
44
45
45
45
45
47
46
47
46
47
46
46
46
46
46
47
47
47
46
46
47
46
46
46
46
46
46
46
46
45
46
45
46
45
46
45
45
44
45
45
45
45
45
46
47
47
48
48
48
48
48
48
48
47
47
47
47
47
46
45
46
46
45
45
45
45
45
46
44
45
45
45
45
46
44
45
46
47
46
48
47
47
47
47
47
48
47
48
48
48
47
48
47
47
47
47
47
46
46
45
45
44
45
45
45
44
44
44
44
44
45
44
45
45
46
45
46
45
47
46
46
46
47
46
47
46
46
45
45
46
46
46
45
45
45
45
44
45
44
45
44
44
43
44
44
45
44
45
44
45
45
46
45
45
44
45
45
46
45
45
46
45
46
45
46
45
45
45
45
45
45
45
46
45
45
45
46
45
46
45
46
45
46
45
46
45
46
46
46
46
47
46
46
45
46
46
46
45
45
46
46
46
45
46
45
45
44
45
45
46
45
46
45
46
45
46
45
45
45
46
45
46
45
46
46
47
47
47
47
47
47
46
46
46
46
45
46
45
46
45
46
45
46
46
46
45
47
45
46
45
46
45
46
46
47
46
47
46
47
46
46
45
46
46
46
46
46
46
45
45
45
45
45
45
45
45
45
45
44
46
45
45
44
46
45
46
46
47
46
46
45
46
46
47
47
47
46
47
46
47
47
47
47
47
47
46
47
46
45
45
46
45
46
45
45
44
45
44
45
45
44
44
45
44
45
46
47
46
46
46
47
46
46
46
46
46
46
46
46
45
45
46
46
46
45
46
45
45
45
46
45
45
44
45
44
45
45
46
46
46
46
47
48
48
48
48
48
48
47
47
47
46
46
46
46
45
45
45
45
44
45
44
45
44
44
44
45
44
44
44
45
44
45
45
45
45
46
47
47
47
47
47
47
46
46
46
45
45
45
45
44
44
44
44
45
45
45
46
49
55
54
58
58
65
68
102
123
134
133
134
126
117
109
105
101
112
121
117
117
110
103
118
117
112
111
110
112
119
115
109
105
101
97
97
101
123
113
116
125
120
115
121
115
107
104
105
98
113
115
108
100
97
95
89
94
92
92
94
93
100
96
90
91
91
85
82
78
77
76
73
69
68
66
65
62
62
59
58
56
56
55
54
52
51
51
51
50
51
52
51
51
51
51
49
49
48
48
49
49
47
48
47
47
47
47
46
47
46
48
48
48
47
48
47
48
47
47
47
46
47
47
46
46
47
46
45
45
45
45
47
46
46
45
46
45
46
45
46
45
46
45
46
46
47
47
48
48
48
48
48
48
48
48
48
48
48
47
47
47
46
46
46
46
46
46
45
45
44
45
44
44
43
44
44
45
45
45
45
45
45
46
46
46
46
46
46
46
45
45
44
44
44
44
44
44
44
44
44
43
43
42
42
41
40
40
40
39
40
38
38
37
38
37
37
36
37
35
36
36
36
36
36
36
37
36
36
36
36
36
36
36
36
35
35
35
34
34
34
34
34
34
34
35
35
36
36
36
36
37
36
36
35
36
37
37
37
36
36
36
35
36
36
36
36
36
35
35
35
34
34
34
34
33
34
33
33
34
34
33
34
33
34
33
34
34
35
34
35
34
34
34
35
35
35
36
36
35
36
35
35
35
35
35
35
35
34
34
34
34
33
34
34
35
34
34
34
35
34
35
34
34
34
35
34
34
35
35
35
36
35
35
34
35
35
35
34
35
35
34
34
34
34
33
34
34
34
34
34
34
35
34
35
34
34
34
34
34
35
35
35
35
35
35
35
35
35
35
36
35
35
35
34
35
34
34
34
36
36
36
35
35
35
36
35
36
35
35
35
35
35
35
35
36
36
36
36
36
36
36
37
37
36
36
36
35
35
34
35
34
35
35
35
35
35
35
35
35
36
35
35
34
34
34
35
34
35
35
35
35
35
34
35
36
36
36
36
36
36
35
36
37
37
38
37
38
37
39
39
40
40
41
41
42
41
42
42
42
42
42
43
44
43
43
43
44
44
45
44
45
45
46
45
46
45
45
45
45
44
44
45
44
45
45
45
44
44
44
44
44
45
44
44
44
45
45
46
46
47
47
48
47
48
47
47
47
46
46
46
46
46
46
45
45
45
45
44
45
45
46
45
46
45
45
45
45
45
46
45
46
45
46
46
47
47
48
47
48
48
48
47
47
47
47
46
46
47
46
46
46
46
46
47
46
46
45
45
45
45
44
45
45
45
46
47
46
47
47
47
47
47
47
47
47
47
46
47
46
46
46
46
46
46
46
46
47
47
47
46
46
45
46
45
45
44
45
44
45
45
46
46
46
46
47
46
47
46
47
47
47
47
47
47
47
47
46
46
46
45
45
46
45
46
45
45
44
46
45
46
45
46
45
45
44
45
45
46
45
46
45
46
46
47
47
47
47
48
48
48
48
47
47
46
47
46
46
45
46
45
46
45
44
44
45
44
44
44
45
44
45
45
46
45
45
45
46
46
46
46
46
46
46
46
47
47
47
47
46
46
46
46
45
46
45
45
44
44
43
44
43
44
44
46
45
46
46
46
46
46
47
47
46
52
58
61
60
59
59
60
62
63
61
59
63
63
59
61
64
62
60
57
60
59
59
58
62
63
64
64
64
63
62
60
62
61
60
61
61
60
58
57
57
58
57
55
54
54
53
55
54
55
56
55
55
55
53
56
56
58
56
56
57
60
60
63
62
60
59
58
58
58
58
57
57
55
54
53
52
52
52
52
51
50
49
49
50
49
48
47
47
46
47
46
47
46
47
46
46
45
45
45
46
45
46
46
47
46
46
46
47
47
48
47
47
47
46
47
47
46
46
47
46
46
45
45
45
46
45
46
45
46
46
47
46
46
45
46
46
46
46
46
46
47
47
47
47
47
47
47
47
47
47
46
46
46
46
45
45
45
45
44
45
44
45
44
45
44
45
44
46
45
46
46
47
46
47
46
46
46
46
47
47
47
47
47
47
47
46
47
46
46
45
46
45
46
45
46
46
47
46
47
46
46
45
46
45
45
45
46
46
47
46
47
46
47
46
46
47
46
46
45
46
45
45
45
45
45
46
46
47
46
46
45
45
44
45
45
45
44
45
45
46
46
46
46
46
46
46
46
47
46
46
47
47
46
46
46
46
46
46
47
46
47
47
47
46
46
45
45
44
45
44
46
44
45
44
45
45
45
45
46
46
46
46
46
45
45
45
45
45
45
46
45
46
45
45
45
46
45
45
45
46
45
46
45
46
45
46
45
46
46
46
46
47
47
48
47
48
48
48
48
48
47
48
47
46
46
46
46
45
45
45
45
44
45
44
45
44
44
44
45
44
45
45
45
44
46
45
46
46
47
46
48
47
47
47
46
47
47
47
46
47
47
46
46
47
46
47
46
46
46
46
44
45
44
44
44
44
43
44
44
45
44
45
45
46
46
46
46
46
46
46
46
46
46
46
46
46
46
45
46
45
46
45
46
45
46
44
45
44
44
43
44
43
44
44
45
44
45
44
45
44
45
45
45
45
45
45
45
45
45
45
45
45
44
45
44
45
44
44
43
44
43
43
43
43
43
44
43
44
43
44
43
44
44
44
45
46
46
46
46
46
46
46
46
45
45
45
45
45
44
44
45
44
45
44
45
44
44
44
44
43
45
44
44
44
45
45
46
46
46
47
47
47
47
47
47
46
46
47
47
47
46
47
46
47
46
47
46
46
45
45
44
45
44
44
43
44
44
45
45
45
45
46
46
47
46
47
47
47
48
48
47
47
47
47
47
47
47
47
47
46
46
46
46
45
46
45
45
45
46
45
46
45
46
44
45
45
46
46
46
46
46
45
46
46
46
46
46
46
47
47
46
46
46
46
45
46
45
46
45
46
44
46
44
45
44
45
45
45
45
46
45
46
45
46
46
46
46
46
46
47
46
46
46
46
46
46
46
45
46
45
46
45
46
45
46
45
46
44
45
45
45
44
45
45
46
46
47
46
46
46
47
46
46
46
46
46
47
47
47
47
47
47
47
47
46
46
45
46
45
46
45
45
45
46
46
47
46
47
46
46
46
46
45
46
46
46
47
47
47
47
46
46
46
46
46
46
45
45
45
45
45
44
44
43
43
43
44
43
44
43
44
43
45
45
46
46
47
46
46
46
46
46
46
46
46
46
46
46
46
46
46
46
46
47
46
46
45
46
45
45
45
46
45
46
45
46
46
46
46
46
45
46
45
46
45
46
45
46
45
46
45
46
45
45
46
46
46
45
45
44
45
44
44
43
43
43
44
44
44
43
44
44
45
45
45
45
45
45
45
46
46
46
46
46
47
47
47
47
47
47
46
47
46
46
46
46
45
46
45
46
45
45
45
45
45
45
44
45
45
46
46
47
46
46
46
46
45
46
46
47
48
47
47
47
46
45
45
44
45
45
45
44
44
44
45
45
45
44
45
44
46
44
46
46
47
47
46
45
45
45
46
47
47
47
47
46
46
46
47
46
46
45
45
47
47
47
46
45
45
47
47
48
48
50
50
52
52
55
54
55
56
59
59
62
62
64
66
68
69
71
71
73
74
77
78
79
80
82
82
83
83
85
86
89
89
90
90
90
91
92
93
93
95
97
99
100
103
104
106
106
106
110
111
118
124
128
134
136
137
136
139
143
148
154
153
156
160
162
158
156
156
160
167
169
175
176
176
177
180
188
187
187
181
179
175
173
171
171
168
165
160
160
157
155
149
151
147
146
142
142
141
144
143
144
144
144
144
144
143
144
146
146
146
147
147
148
148
149
147
146
146
145
146
144
144
143
145
143
145
143
144
142
143
143
143
142
143
141
142
140
140
139
141
140
139
138
138
137
137
138
137
140
139
141
140
142
140
143
142
144
142
143
142
142
141
141
140
140
139
139
138
139
138
138
137
136
133
131
129
127
126
123
121
117
116
111
113
109
109
106
105
102
101
99
97
97
96
96
95
94
94
93
93
93
92
91
90
90
89
88
87
87
85
86
84
85
83
84
82
83
81
82
80
81
80
81
80
81
80
80
81
80
81
80
81
82
82
81
82
82
83
82
82
81
81
80
81
79
80
79
80
78
79
78
78
77
77
77
78
77
77
76
77
76
76
75
75
75
75
75
74
74
73
73
73
73
73
73
73
72
72
72
71
72
70
70
69
69
68
70
68
69
68
69
68
68
67
67
68
67
67
66
67
66
67
67
67
67
68
68
69
69
69
68
69
68
68
67
68
66
67
66
67
65
66
65
65
64
64
64
64
64
64
64
64
64
63
63
63
64
64
64
64
65
65
65
64
65
65
65
65
66
65
65
64
65
63
64
63
64
62
63
62
62
62
62
61
61
61
61
62
62
63
62
63
64
64
64
64
64
64
64
64
63
63
63
63
63
63
62
63
62
62
61
62
61
61
61
61
60
60
60
60
59
58
59
59
59
59
59
60
61
61
62
62
63
62
63
62
63
62
63
62
62
61
62
61
61
60
61
60
61
60
59
60
59
59
59
59
59
59
58
59
59
60
59
61
61
61
61
62
61
62
61
62
61
61
61
61
60
61
60
60
58
59
58
59
58
58
58
58
57
57
57
56
57
57
58
57
58
57
58
58
59
60
60
59
61
60
60
59
60
60
60
59
60
59
59
58
59
58
58
57
57
56
56
56
56
56
56
57
56
57
57
58
58
59
58
59
58
59
58
58
58
58
57
58
58
58
58
58
57
58
57
58
57
57
57
57
56
56
56
55
56
55
56
55
56
56
57
57
58
57
58
57
58
57
58
57
58
58
59
58
59
58
58
57
58
57
57
56
56
55
55
55
55
55
54
54
54
55
54
56
55
56
56
57
57
58
57
58
57
58
57
58
57
58
58
58
58
58
58
58
57
57
56
57
57
57
56
56
56
56
56
55
57
57
57
57
58
57
58
57
58
58
58
57
58
58
58
57
57
57
57
57
57
57
57
56
57
56
57
56
56
56
56
56
55
55
55
56
55
56
56
56
56
56
56
58
57
58
57
57
57
58
57
58
57
57
57
58
57
56
56
57
56
56
55
55
55
54
55
54
55
54
55
55
56
56
57
57
58
58
59
58
59
58
59
58
59
58
58
58
59
58
58
59
59
58
57
56
57
56
56
55
56
56
55
55
54
54
54
55
54
55
55
56
56
56
57
57
57
57
56
57
56
57
56
56
56
56
56
56
56
56
55
55
55
55
55
54
55
54
54
54
54
54
54
54
54
54
55
54
55
55
55
55
55
56
56
56
55
55
55
55
55
55
55
54
54
54
54
54
54
53
53
54
54
53
52
53
53
54
53
54
54
55
54
55
55
56
56
56
55
55
56
57
56
56
55
56
55
56
55
55
54
54
54
54
54
54
55
54
54
54
55
53
54
54
54
54
54
53
54
53
54
53
55
54
56
55
56
55
55
55
55
54
55
55
54
54
54
53
53
53
52
52
51
52
51
52
52
54
53
54
53
53
54
54
53
54
54
55
54
55
55
56
55
55
54
54
53
54
53
53
52
52
52
52
52
52
52
51
52
51
52
52
52
52
52
52
53
53
54
53
54
53
55
54
55
54
55
54
55
54
54
53
54
53
53
53
52
52
53
53
52
52
52
52
51
52
51
52
52
53
52
53
53
54
53
54
54
55
55
56
55
55
55
54
54
54
54
54
54
53
54
54
53
53
53
53
54
53
53
53
53
52
53
52
53
53
54
54
55
54
55
54
55
54
54
53
53
53
54
53
53
53
53
52
52
51
51
52
52
52
51
51
50
51
51
51
51
53
52
54
53
54
53
54
53
54
54
55
55
55
54
55
54
54
54
54
53
53
53
53
52
52
52
52
53
52
52
52
52
51
51
51
52
51
52
52
52
52
53
52
53
52
53
52
53
53
53
52
53
53
53
53
53
52
53
52
52
52
52
52
52
52
51
51
50
51
50
51
50
51
50
51
51
51
52
52
52
53
52
54
53
54
53
53
53
53
52
52
52
52
52
52
51
51
52
51
52
51
51
50
51
50
51
51
51
51
53
52
53
53
54
53
53
53
53
53
54
54
53
53
53
53
54
53
53
53
53
53
53
53
53
53
52
53
52
52
51
51
51
52
51
52
52
53
53
54
54
54
54
54
54
54
54
54
54
54
53
53
53
53
53
53
52
51
51
51
51
51
51
50
51
51
52
51
52
51
52
51
52
53
54
53
54
53
54
53
53
53
53
53
53
52
52
51
51
51
51
51
51
50
51
51
51
52
51
52
51
51
50
51
51
53
52
54
53
54
53
54
53
54
53
53
53
54
53
53
53
53
53
54
54
53
53
52
53
52
52
52
52
51
52
52
53
52
53
52
53
53
54
53
54
53
54
54
54
53
53
53
53
53
53
53
53
52
52
52
52
52
51
52
51
51
51
52
51
52
51
52
51
51
51
52
51
53
52
53
52
53
52
53
52
53
53
53
52
52
52
52
52
52
51
51
51
