49
50
50
50
51
51
51
52
52
52
53
53
53
53
53
53
53
54
54
54
54
54
54
55
55
55
56
56
56
57
56
57
58
58
59
59
60
60
60
61
61
61
62
62
63
63
63
63
64
64
65
64
65
64
64
64
64
64
65
64
65
65
66
65
66
66
66
66
67
67
67
67
67
67
68
68
68
69
68
69
68
68
68
68
67
67
67
67
67
67
67
68
67
68
67
68
68
69
69
69
69
70
71
71
72
72
73
73
74
73
74
73
74
74
74
73
74
73
73
72
73
72
73
72
72
72
74
74
74
74
74
74
75
75
75
75
76
76
76
76
76
76
75
76
76
77
76
77
76
77
76
77
76
77
76
76
76
77
76
77
76
77
76
77
77
78
77
78
78
78
78
79
79
78
79
79
79
78
78
77
78
77
77
76
76
75
75
74
74
73
73
73
73
73
73
73
73
73
73
73
73
73
72
72
72
72
72
72
72
72
72
72
72
73
72
72
70
69
68
67
65
64
63
62
61
59
58
57
56
56
55
55
54
55
53
53
52
52
51
52
51
50
49
48
48
48
47
46
46
46
45
45
45
45
44
45
44
45
44
44
44
44
43
44
44
44
43
43
43
43
43
43
43
43
44
43
43
43
43
43
43
43
43
43
43
43
44
44
44
45
45
46
47
46
46
46
47
46
47
47
47
47
48
48
48
48
48
48
49
49
49
48
49
49
49
49
49
49
49
49
50
50
50
50
49
49
49
49
49
49
48
48
47
47
46
46
45
45
45
45
44
44
43
44
43
43
43
43
42
42
42
42
42
42
42
42
42
42
42
41
42
41
42
41
42
41
42
41
42
41
42
41
41
41
41
41
41
41
41
41
41
41
41
41
41
41
41
41
41
42
41
41
41
41
42
42
42
42
42
43
42
42
42
42
42
42
42
42
42
42
43
43
43
42
43
42
42
42
42
42
42
42
43
43
44
43
45
45
45
45
46
45
45
44
45
44
44
43
43
42
42
42
43
44
43
43
43
43
43
44
43
44
43
43
43
44
44
44
44
45
44
45
45
46
46
47
47
47
47
47
47
47
46
46
46
46
46
46
46
46
46
46
46
46
46
46
47
47
47
47
47
47
47
47
47
46
47
46
46
46
47
47
47
47
47
47
47
47
47
47
47
47
47
47
47
47
47
47
48
48
48
48
48
49
48
49
48
48
48
49
49
49
49
49
49
49
49
49
50
50
50
50
50
50
50
50
49
49
49
49
50
49
50
50
50
50
50
51
51
51
51
51
51
51
51
51
51
51
51
51
51
51
51
51
51
51
51
52
51
51
52
52
54
56
54
54
58
64
74
92
103
103
128
149
170
189
196
204
212
202
211
234
227
244
263
294
328
329
340
353
335
314
298
301
283
286
284
279
275
261
246
241
229
235
235
234
222
219
219
233
216
205
216
224
228
222
219
210
205
201
192
182
201
211
202
197
206
204
197
189
175
160
150
140
132
124
119
115
111
105
98
94
91
89
88
84
84
83
84
83
81
80
78
78
79
80
79
78
78
80
80
79
78
78
76
76
76
76
75
74
73
72
71
72
71
74
73
74
74
75
75
73
71
70
68
66
65
64
64
63
62
61
60
60
62
62
60
60
60
61
61
61
60
60
60
60
60
59
59
59
58
58
58
57
58
58
58
57
58
57
57
56
57
57
57
56
57
57
57
57
57
57
57
58
59
59
61
61
62
62
61
61
61
62
61
60
60
62
61
61
59
59
58
58
58
58
57
57
58
58
58
58
57
57
56
56
55
56
57
57
57
57
57
57
57
58
59
60
60
60
60
59
59
59
58
58
59
60
59
60
59
59
59
58
58
59
59
59
60
60
60
59
59
59
59
60
60
60
61
61
61
60
60
60
60
63
62
61
60
61
61
61
60
61
61
60
61
62
62
62
62
62
62
62
62
62
61
62
63
61
61
61
62
60
60
60
60
59
59
59
58
59
59
59
59
58
60
59
59
58
59
59
59
58
58
59
58
59
60
61
60
60
60
60
60
61
61
62
62
61
60
60
60
59
59
59
59
59
59
59
58
61
60
59
64
65
64
67
67
65
69
70
71
69
75
73
71
77
78
82
86
88
88
95
102
105
107
114
113
113
106
105
106
101
105
107
107
106
107
103
98
93
94
96
95
95
90
86
89
88
87
86
84
81
79
76
80
80
80
78
81
83
83
79
78
77
77
77
76
77
74
79
76
74
73
71
70
68
68
68
67
66
67
66
67
68
68
67
65
66
65
65
64
64
63
63
62
63
61
63
62
62
61
60
59
59
58
58
56
56
55
55
54
54
54
54
53
53
52
52
51
51
51
51
51
50
50
50
50
49
49
49
49
49
49
48
48
48
48
47
47
47
47
47
47
47
46
46
46
46
46
46
46
46
46
45
46
46
45
46
45
46
45
46
45
45
45
46
45
46
45
46
45
45
45
46
45
45
45
45
45
45
46
45
46
45
46
45
46
46
46
45
46
45
45
45
45
44
45
45
45
46
46
46
46
45
45
46
46
46
46
46
46
46
45
46
46
46
46
46
46
47
46
47
46
47
45
46
45
46
45
46
45
46
45
46
46
46
46
46
46
46
46
46
46
46
47
46
46
45
46
46
46
46
46
45
46
46
47
46
47
46
47
46
47
46
47
46
47
47
47
47
47
47
48
48
48
48
47
48
48
48
47
47
47
47
47
48
47
47
47
47
46
47
46
46
46
46
46
47
46
47
46
46
47
47
46
47
48
47
48
48
48
48
48
48
49
49
50
54
54
65
72
86
121
129
137
150
155
152
153
170
179
181
187
187
192
187
187
216
228
240
245
257
265
244
234
224
218
225
235
258
256
246
243
250
235
223
225
230
220
244
229
227
218
215
208
192
193
180
170
157
144
134
123
123
126
123
117
116
108
102
98
96
94
92
89
89
93
90
84
78
74
71
70
68
68
66
64
64
64
62
61
59
59
59
59
59
57
57
55
56
56
56
55
55
54
54
53
54
55
55
54
55
55
54
54
54
55
55
55
55
55
55
55
55
55
55
56
55
56
56
57
56
57
56
55
55
55
56
57
57
56
55
55
56
56
55
55
56
56
56
55
54
54
53
53
52
52
53
52
52
52
53
54
55
54
55
56
56
55
55
55
55
56
56
55
55
54
54
54
54
53
53
54
54
54
54
55
54
53
53
53
53
52
51
52
52
52
52
52
52
52
52
53
54
55
55
54
55
55
55
56
55
55
55
56
55
55
54
54
53
54
54
53
53
54
53
53
55
54
54
53
54
53
52
52
53
53
52
52
52
52
52
52
52
52
53
53
53
53
52
52
52
52
53
54
53
52
52
52
52
52
52
53
53
53
53
53
53
53
54
55
54
54
54
53
55
55
54
55
54
55
54
54
54
55
54
54
53
53
54
54
54
53
53
54
54
54
55
56
56
56
55
54
54
53
54
54
54
55
56
55
55
55
56
55
57
59
59
59
59
62
66
71
79
85
83
90
92
94
119
116
130
136
135
132
128
119
112
105
103
113
128
147
140
134
127
120
116
108
110
124
132
133
144
135
130
118
113
106
107
118
132
134
126
118
113
113
121
137
136
142
145
136
125
116
115
115
113
114
108
103
102
100
95
97
114
120
119
111
104
99
93
89
85
84
80
76
73
70
68
66
65
63
62
61
59
59
57
58
57
57
58
57
56
56
56
56
55
55
55
55
56
56
55
55
55
57
56
56
56
55
55
54
55
54
54
53
53
52
52
51
52
52
52
52
52
52
52
51
52
53
53
53
53
54
54
54
54
54
54
55
54
54
54
54
53
53
53
53
55
55
55
54
54
54
53
54
53
54
53
53
52
52
53
53
53
53
53
53
52
52
53
53
52
53
52
53
53
52
53
53
54
52
52
53
54
53
54
54
54
53
53
52
52
52
53
53
53
54
54
53
53
53
53
54
54
54
54
54
53
53
52
52
52
51
51
52
51
52
51
52
52
53
52
53
52
53
53
53
53
54
54
53
53
53
53
53
53
52
52
52
52
52
51
52
52
52
52
53
52
52
51
51
52
52
53
53
52
53
53
52
53
52
52
51
52
51
51
51
51
52
52
52
51
51
52
51
51
52
52
51
52
52
52
52
53
53
53
53
52
52
52
52
52
52
52
52
52
53
53
52
53
52
51
52
51
51
51
51
51
51
51
51
51
51
51
51
52
53
53
52
52
53
52
52
52
52
53
53
53
52
53
52
52
52
52
51
52
51
51
51
52
52
53
53
52
53
53
53
53
53
53
53
53
53
53
53
53
53
53
53
52
52
51
52
52
52
52
53
53
52
52
52
50
50
51
51
51
51
51
51
52
51
52
52
51
51
52
51
52
52
52
54
54
53
53
53
53
53
53
53
53
53
53
53
53
52
52
51
52
51
50
52
51
51
50
51
50
52
52
52
51
52
52
52
52
53
53
53
52
52
52
53
54
54
53
53
52
52
52
53
51
51
51
52
52
51
52
52
51
51
52
51
51
51
51
52
52
52
52
52
52
52
51
51
52
51
52
51
52
51
52
50
51
51
51
52
51
52
52
52
53
51
52
52
52
53
53
54
53
54
54
54
54
54
54
54
54
54
54
53
54
58
61
64
63
72
72
73
103
102
108
118
122
126
137
134
138
132
139
143
152
145
143
133
131
136
144
144
144
153
159
171
167
159
146
138
130
147
138
139
140
140
134
153
143
154
141
134
133
127
119
114
108
105
116
108
102
97
100
92
94
96
90
85
82
78
74
71
69
67
65
63
62
61
60
59
59
58
56
55
57
58
58
57
56
56
55
55
55
54
55
56
56
55
55
53
53
53
54
53
54
53
54
53
54
54
54
53
53
53
53
54
53
53
53
55
53
53
53
54
55
54
56
56
55
55
54
54
54
54
54
55
54
54
54
55
54
54
54
54
53
53
54
54
54
53
53
52
54
54
54
53
54
52
53
51
52
53
53
53
53
53
53
52
52
52
54
54
54
54
54
52
52
52
53
53
53
53
52
51
52
52
51
51
53
52
53
53
53
53
53
54
52
52
53
53
53
54
53
53
53
53
53
53
53
53
52
53
52
52
52
52
52
52
51
51
52
51
51
51
51
51
52
51
51
51
51
52
52
52
52
52
53
52
52
53
53
53
54
53
52
52
53
52
52
52
52
53
52
52
52
51
52
52
52
52
51
52
51
51
52
52
52
51
52
52
52
52
51
52
51
51
51
52
52
52
51
51
51
52
52
52
52
51
51
51
51
50
49
50
50
49
49
50
51
50
50
51
52
53
53
53
53
53
53
51
52
50
50
51
51
50
50
51
52
52
52
51
53
54
53
53
54
54
53
53
54
53
54
53
54
53
53
53
52
52
51
52
51
51
51
52
51
52
50
51
52
52
53
53
51
51
51
52
53
52
52
52
51
52
51
51
51
51
51
51
51
53
52
52
52
51
51
50
50
51
50
49
50
48
49
49
50
50
50
51
51
51
51
50
50
49
49
50
50
51
50
51
50
50
50
50
51
52
52
52
52
52
51
52
51
52
51
51
49
50
49
50
50
51
51
51
51
50
52
51
53
51
50
51
51
52
53
52
52
52
53
53
52
52
53
51
51
52
52
52
52
53
53
52
52
52
52
52
52
52
51
51
51
51
51
50
50
51
51
51
51
52
52
51
51
51
51
51
52
52
53
53
53
53
52
52
53
53
51
52
52
51
51
51
52
52
52
52
52
52
52
52
53
60
63
63
66
68
70
70
67
65
63
62
60
61
60
59
59
58
57
57
56
55
56
61
59
61
59
59
57
57
58
61
60
59
59
61
61
60
61
61
61
60
59
59
61
61
63
62
60
61
62
63
65
67
70
68
66
65
64
63
61
61
59
59
57
57
55
54
53
52
53
54
54
53
53
53
53
53
54
56
55
55
55
54
54
57
57
55
55
54
53
54
53
52
51
56
57
54
54
56
57
56
55
54
54
53
54
56
56
56
55
55
54
55
55
54
53
53
53
53
52
52
52
52
52
52
52
52
53
52
52
53
53
52
53
53
54
53
54
53
52
52
52
53
53
53
53
53
54
55
56
54
54
54
54
54
53
53
53
52
53
53
53
51
51
52
52
53
52
51
52
52
52
52
52
53
54
53
53
53
53
53
54
54
52
53
52
52
53
54
53
53
53
53
53
53
53
52
52
53
54
54
54
53
53
53
53
52
52
52
52
52
53
53
53
53
54
54
54
53
53
52
52
50
51
50
50
50
52
51
51
51
50
52
52
52
53
52
52
53
52
52
52
52
53
53
52
52
51
51
53
54
54
54
53
53
53
53
52
53
52
52
52
52
52
52
52
52
52
51
51
53
53
53
52
52
52
52
52
53
53
53
52
53
53
52
52
51
51
51
52
52
52
52
52
51
52
51
51
52
52
51
51
50
50
51
51
51
51
52
52
52
51
51
52
52
52
52
51
50
51
51
50
51
51
51
51
51
50
50
50
50
50
51
50
51
50
50
49
50
51
49
50
50
51
51
52
52
52
52
52
53
53
53
53
53
52
52
53
52
52
50
52
52
52
51
51
50
51
51
51
51
51
52
51
52
52
53
53
53
53
53
52
52
52
53
53
54
54
54
54
53
53
53
52
52
52
51
50
50
51
50
50
50
50
49
49
49
50
50
50
51
51
51
52
52
52
52
52
53
53
52
52
52
52
51
51
50
51
51
51
51
51
50
50
50
50
50
51
50
51
51
50
51
51
51
51
51
51
52
51
51
51
51
51
51
50
51
50
50
51
51
50
50
52
52
51
52
51
51
51
51
52
51
51
51
51
51
51
51
51
51
53
52
53
52
52
53
53
53
52
52
52
51
51
52
52
52
52
51
51
51
51
52
51
51
50
51
52
51
51
52
52
51
51
51
51
52
53
53
52
52
52
53
52
52
51
51
51
52
51
52
51
51
51
51
51
51
51
51
52
53
53
53
52
51
51
51
52
51
51
51
51
51
52
52
52
52
52
52
52
52
52
53
53
52
52
51
53
53
53
54
53
53
53
54
53
54
52
53
53
53
53
54
53
52
52
53
54
54
55
55
56
57
59
58
60
65
63
68
81
81
88
100
106
123
127
154
197
211
209
240
229
242
249
244
241
248
283
282
290
278
314
304
327
304
295
276
268
272
266
247
255
266
249
256
242
233
217
211
208
213
211
216
216
222
218
216
216
224
221
208
209
200
205
218
204
201
197
187
174
164
159
150
143
135
136
133
131
124
119
113
107
105
100
98
96
94
93
94
91
92
90
87
85
84
82
80
80
81
80
80
78
77
78
77
76
77
75
72
73
73
73
73
71
76
76
77
76
76
74
72
71
70
66
64
62
61
59
58
56
56
54
53
52
52
51
52
51
51
50
51
49
49
49
48
48
49
49
49
49
49
48
48
49
48
48
48
47
47
48
48
48
47
48
48
48
48
48
48
48
48
49
48
48
48
48
47
48
47
47
47
48
48
49
49
48
48
47
47
47
47
47
47
46
47
47
47
47
48
47
48
48
48
47
48
48
48
47
47
46
47
47
47
47
47
47
47
46
46
46
47
48
47
47
47
48
47
48
47
47
47
47
48
48
47
47
47
47
47
48
47
47
47
47
47
47
46
47
46
47
47
47
47
48
48
47
48
48
48
47
48
47
48
48
48
47
48
48
48
47
48
47
47
47
47
47
47
46
46
47
47
47
46
46
46
46
46
46
45
45
45
45
45
46
46
46
45
45
45
46
45
45
45
46
45
46
45
46
46
46
45
46
46
46
46
46
46
46
47
47
47
48
48
48
49
48
48
48
48
48
48
48
48
47
47
46
47
46
47
46
46
46
47
47
47
46
47
46
47
47
47
46
47
47
47
47
47
47
46
47
46
46
46
46
46
46
46
47
47
47
46
47
47
47
47
47
46
46
46
47
46
47
47
47
47
46
47
46
46
46
47
47
48
47
48
47
47
47
47
46
47
47
48
47
47
46
47
47
47
48
48
47
48
48
48
49
49
48
48
49
48
48
48
49
50
50
50
50
50
50
50
50
51
51
51
51
50
50
49
49
48
49
48
48
48
48
48
48
48
48
48
48
48
48
48
47
47
47
47
47
47
47
47
47
48
47
48
48
49
48
48
47
48
47
48
47
48
47
47
47
47
46
46
45
46
46
46
46
46
46
46
47
46
47
47
47
47
48
47
48
47
48
47
48
48
48
47
47
47
47
47
47
47
47
47
48
47
47
47
48
48
48
48
47
48
47
47
47
47
47
47
47
47
47
48
48
48
47
47
47
47
47
48
47
48
48
48
48
48
49
49
49
49
49
49
49
48
48
48
48
48
48
47
48
48
49
48
49
49
49
48
49
49
50
48
49
49
49
49
49
49
49
49
48
49
49
48
49
49
49
50
49
49
48
48
49
49
49
49
48
49
48
49
48
49
48
48
47
47
47
48
48
48
48
48
48
47
47
48
47
47
48
48
48
48
48
48
49
48
48
47
48
47
48
47
48
46
47
47
48
47
48
47
48
47
47
47
47
47
47
47
48
48
48
49
48
48
48
48
47
48
49
49
49
51
52
53
55
54
61
63
62
65
67
68
69
69
74
73
77
78
81
84
94
94
103
108
104
100
96
94
96
102
104
101
104
105
108
122
115
109
108
113
116
111
106
107
101
102
104
103
105
102
100
98
99
97
96
99
103
104
105
112
109
106
107
107
103
104
101
99
96
98
96
95
90
87
83
86
82
84
80
80
78
77
76
74
74
74
71
71
70
70
70
70
69
67
67
68
69
68
68
68
67
67
66
65
66
66
67
66
66
64
64
64
66
65
65
66
66
66
66
65
65
65
65
65
65
65
65
64
66
68
68
67
67
66
65
64
64
64
64
63
63
64
63
64
64
64
63
63
63
63
62
63
62
63
62
62
61
61
62
62
61
61
61
61
64
63
64
64
63
63
63
63
64
63
65
64
64
64
64
64
65
64
65
64
65
66
66
65
65
65
64
63
63
63
63
63
63
63
63
63
62
62
62
62
62
62
61
63
61
62
61
62
61
62
61
61
60
60
60
60
60
61
60
61
61
60
59
60
60
60
60
61
60
62
63
62
62
63
63
63
62
62
63
63
64
63
65
64
65
64
65
63
64
64
64
64
64
64
64
64
64
63
62
63
63
62
62
61
61
61
61
62
62
62
61
61
60
61
60
60
60
61
61
61
61
61
61
62
61
61
61
61
62
61
62
61
61
61
61
60
61
62
63
64
63
62
63
62
62
62
62
61
61
60
62
61
62
61
61
61
61
60
61
61
61
61
61
61
61
61
61
61
62
62
62
62
62
61
62
62
61
61
61
60
59
60
59
60
59
60
59
60
59
60
59
60
59
60
58
59
59
59
58
58
58
58
58
58
59
58
59
59
59
59
59
58
59
58
58
58
59
58
59
58
59
58
58
58
59
58
59
59
59
58
59
58
59
58
58
58
58
58
57
57
58
58
58
58
57
57
58
58
57
58
57
58
57
58
57
58
58
58
57
59
58
58
58
59
58
58
59
59
59
60
59
59
59
59
58
58
58
58
58
58
59
58
59
58
59
58
58
57
58
57
59
57
58
58
59
58
58
57
57
56
57
57
57
58
58
60
60
60
59
59
58
58
57
59
58
59
58
59
57
58
57
58
57
58
59
59
59
59
59
60
60
60
60
60
59
58
58
58
58
58
58
58
58
59
59
58
58
58
58
58
58
57
58
57
58
59
60
59
59
59
60
59
59
59
58
59
60
59
59
58
58
58
59
59
58
58
57
57
57
58
57
57
56
58
57
58
58
58
57
57
56
57
57
57
56
57
57
58
57
57
57
58
57
57
57
57
57
56
56
56
56
55
57
56
57
56
56
55
57
57
57
57
57
56
57
56
57
56
56
56
57
56
56
56
57
57
57
57
57
56
57
58
59
59
59
58
58
58
58
58
57
58
57
58
58
59
59
59
58
59
58
58
57
57
57
58
57
57
57
57
57
57
57
57
57
57
57
56
57
56
56
57
57
57
58
56
56
55
56
56
56
55
56
56
56
56
57
57
58
57
57
56
57
56
56
55
56
55
55
55
55
54
55
55
55
56
56
56
55
56
57
58
57
57
57
57
56
57
57
58
59
60
63
63
67
70
74
90
96
110
129
137
142
174
179
168
171
160
158
158
166
168
168
165
172
174
173
169
171
173
173
173
172
169
164
171
179
186
196
193
201
192
195
193
192
188
198
206
210
206
209
233
233
232
225
221
221
217
209
198
187
187
181
179
170
174
185
185
188
198
207
194
192
177
167
158
156
151
142
135
137
127
120
145
147
139
131
124
117
111
102
96
94
102
100
96
90
87
87
86
82
78
78
81
82
80
84
86
86
84
80
76
72
69
66
65
61
60
59
58
57
57
56
54
54
54
53
53
53
52
52
51
52
51
51
50
50
50
50
49
49
48
49
48
49
48
49
48
48
48
48
48
49
48
49
48
49
48
49
49
49
49
49
49
49
49
49
49
49
50
49
50
49
50
50
50
49
49
49
50
49
49
49
49
49
49
49
49
49
49
48
49
49
49
49
49
49
49
49
49
49
49
50
49
49
49
50
48
49
49
49
49
50
49
49
49
49
49
49
49
49
49
50
50
50
50
50
50
50
49
50
50
50
49
49
50
49
50
49
50
49
50
49
50
49
49
49
49
49
49
48
49
49
49
49
49
49
50
49
50
49
50
50
50
50
50
50
50
50
50
50
49
50
50
50
49
50
49
50
49
50
49
50
49
50
49
50
49
50
50
50
49
50
49
50
50
50
50
51
51
50
50
50
51
50
51
50
51
50
50
49
50
50
50
49
50
49
50
49
50
49
49
49
50
49
49
49
50
49
50
50
50
50
51
51
50
50
50
50
50
50
50
51
50
50
50
50
49
50
49
50
50
50
50
50
50
51
50
50
50
51
50
50
50
50
50
50
51
51
51
50
51
50
50
50
50
49
50
49
50
49
50
49
50
49
50
50
50
50
51
50
50
50
50
49
50
49
50
50
49
50
50
50
50
50
50
50
50
50
50
50
49
50
49
50
50
50
50
50
49
50
49
50
49
50
49
50
50
50
50
50
49
49
50
50
50
50
50
49
51
50
50
50
51
50
50
49
49
49
50
49
50
49
50
49
49
49
50
49
49
49
49
49
49
49
50
50
49
50
50
50
50
50
50
50
49
49
49
50
50
50
50
50
49
50
49
50
50
50
50
50
49
50
49
50
50
50
49
50
50
50
50
49
50
49
50
49
50
50
50
49
50
49
50
49
50
49
50
49
50
49
50
50
50
50
50
50
50
50
51
50
51
51
51
51
50
50
50
51
51
50
50
50
49
50
49
50
50
50
49
50
49
50
49
50
49
50
51
51
50
51
50
50
50
50
50
50
50
50
50
50
50
49
49
49
49
49
50
49
50
49
50
49
50
49
50
49
49
49
50
49
50
49
50
50
50
49
50
50
50
50
50
50
50
50
50
50
49
50
50
50
49
50
49
50
49
50
49
50
49
49
49
49
49
49
49
49
49
49
49
49
49
49
49
49
49
49
49
48
49
48
49
48
49
48
49
49
49
49
49
49
50
49
49
49
49
49
49
49
50
49
50
49
50
49
50
50
50
50
49
50
49
49
48
49
48
49
48
49
49
49
48
49
48
49
48
48
48
48
48
48
48
48
48
48
48
48
48
48
48
48
48
48
48
48
48
48
49
48
49
48
49
48
49
48
48
48
48
48
48
48
48
48
48
48
48
48
49
49
49
49
49
49
49
48
48
48
49
49
48
49
48
49
48
49
48
49
48
49
48
49
48
49
49
49
48
49
48
48
48
49
48
48
48
48
48
49
48
49
48
48
48
48
49
48
49
48
49
48
48
48
49
48
49
48
49
48
48
48
49
49
49
48
49
48
49
48
49
48
48
48
48
48
48
48
48
49
48
49
48
49
48
49
48
48
48
48
48
49
48
48
48
48
48
48
48
48
48
48
48
48
48
48
48
48
48
48
48
48
48
48
48
47
48
47
48
47
48
47
48
47
48
48
48
47
48
48
48
48
48
48
48
48
48
48
49
48
49
49
49
49
49
49
48
49
48
49
48
48
48
48
48
48
48
48
48
48
48
48
48
48
48
48
48
48
48
48
48
49
49
49
48
48
48
48
49
48
49
48
49
48
49
48
49
48
48
48
48
48
49
48
49
48
48
47
48
48
48
47
48
48
48
48
48
48
48
48
48
48
48
49
48
49
48
48
48
49
48
48
48
48
48
48
47
48
47
48
48
48
48
48
48
48
47
48
48
47
48
48
48
48
49
48
49
49
49
48
49
48
49
48
49
48
48
48
48
48
48
48
49
48
49
48
49
50
51
51
58
63
64
66
74
80
82
87
94
93
93
97
108
104
113
111
117
118
113
115
112
118
116
114
117
117
111
110
107
108
108
104
114
126
123
119
112
108
105
110
106
107
111
112
111
104
106
103
99
107
109
121
124
124
123
114
106
112
110
136
140
142
151
140
129
122
117
116
122
135
135
128
124
116
108
102
104
109
110
108
100
95
88
83
81
81
85
82
78
77
73
69
66
64
61
59
58
56
55
54
53
51
51
50
50
48
49
48
48
47
47
47
48
48
48
51
50
49
49
48
48
48
47
47
47
47
47
47
46
47
46
47
47
47
47
47
46
47
46
46
46
46
46
46
46
46
46
46
46
46
46
47
47
47
47
46
47
47
47
47
47
47
47
47
47
47
47
47
47
46
47
46
47
46
47
46
47
46
47
47
47
47
47
46
47
46
46
46
47
46
46
47
46
47
46
47
46
47
47
47
46
47
46
47
46
47
46
47
46
46
46
46
46
46
46
46
46
46
46
46
47
47
47
47
47
46
47
46
47
47
47
46
47
46
47
46
47
47
47
46
47
46
47
47
47
46
47
46
46
46
46
46
46
46
46
46
46
46
46
46
46
46
46
46
46
46
46
46
45
46
46
46
46
46
46
47
46
47
46
47
46
47
46
46
46
46
46
47
47
46
46
46
46
46
46
46
46
46
46
46
46
46
46
46
47
46
46
46
47
46
47
46
47
46
47
46
47
46
46
46
46
47
46
47
46
46
47
47
47
46
46
46
47
47
46
47
46
46
46
47
46
47
46
46
46
47
46
46
46
46
46
47
46
46
46
46
46
46
47
46
46
46
46
46
46
46
46
46
47
46
46
45
46
45
46
45
46
46
46
45
46
46
46
46
47
46
46
46
46
46
46
47
47
46
46
46
46
46
46
46
46
47
46
46
46
47
46
47
46
47
46
47
46
47
47
47
46
47
46
46
46
46
46
46
46
47
47
47
47
46
47
46
47
46
47
46
47
46
46
46
46
45
46
45
46
45
46
46
46
46
46
46
47
46
47
46
46
46
47
47
47
47
47
47
46
47
47
47
46
46
46
46
46
47
46
46
46
46
46
47
46
47
46
46
46
47
46
46
46
46
46
47
47
46
46
47
46
47
47
47
47
46
47
46
47
47
47
47
47
46
47
46
47
46
47
47
47
47
47
47
47
46
46
46
46
46
46
46
46
46
46
47
46
46
46
47
46
46
45
46
46
47
46
47
46
46
46
46
46
46
46
46
46
47
46
46
46
46
46
46
46
46
46
46
46
46
46
46
46
46
46
45
46
46
46
45
46
46
46
45
46
45
46
45
46
45
46
46
46
46
46
46
46
46
46
46
46
46
46
46
46
46
46
46
45
46
46
46
45
46
45
46
45
46
45
46
45
46
45
46
45
45
45
45
45
45
45
46
46
45
46
46
46
46
46
46
46
46
46
46
46
46
46
46
47
46
47
46
47
46
47
46
46
46
46
46
46
46
46
46
46
46
46
46
46
46
46
46
45
46
45
46
45
46
45
46
45
46
45
46
45
45
45
45
45
45
45
46
45
46
46
45
46
46
45
46
45
45
45
45
46
45
46
45
45
45
45
45
45
45
45
45
45
45
45
45
45
45
45
45
45
45
45
45
45
45
45
45
45
45
45
45
45
46
45
46
45
45
45
46
45
45
45
46
45
46
45
46
45
46
45
45
45
45
45
45
45
45
45
45
45
45
45
45
45
45
45
45
45
45
45
45
45
45
46
45
46
45
45
45
45
44
45
45
45
44
45
45
46
46
45
45
45
45
45
46
46
46
45
46
46
46
45
46
45
46
45
46
45
46
45
45
45
46
45
45
45
45
45
45
45
46
45
45
45
45
45
45
46
45
45
45
45
45
46
45
45
44
45
45
46
45
45
45
46
45
45
45
45
44
45
44
45
45
45
45
44
44
45
45
45
45
45
45
45
45
45
45
45
45
44
45
44
45
45
45
45
45
44
45
45
45
44
45
45
45
45
45
45
45
45
45
45
45
45
45
45
45
45
45
45
45
46
45
46
45
46
45
45
45
45
45
45
44
45
44
45
44
45
45
45
45
45
45
45
45
45
45
45
46
45
45
45
46
45
46
46
45
46
46
45
46
45
45
44
45
45
45
46
46
46
46
45
46
45
46
45
45
45
45
45
45
45
45
45
45
45
44
45
45
46
45
46
45
45
45
45
45
45
44
45
44
45
44
44
44
45
45
44
44
44
44
44
44
44
44
45
45
45
45
45
45
44
45
44
45
45
45
44
45
44
45
45
45
44
45
44
45
45
45
45
45
45
45
45
45
45
45
45
45
45
45
45
45
46
45
46
46
46
45
45
45
46
45
45
45
45
45
45
45
45
45
45
44
45
44
45
45
45
45
45
45
45
45
45
46
46
46
46
46
45
46
45
46
45
46
45
45
45
45
45
46
45
46
45
46
46
45
45
46
46
45
45
45
45
45
45
45
46
45
46
45
46
45
46
45
46
46
46
45
46
45
46
45
45
45
45
45
45
45
45
45
45
45
45
45
45
45
45
45
45
46
45
45
45
45
45
45
45
46
45
45
45
45
44
45
45
45
45
45
44
45
44
45
45
46
45
45
46
46
46
45
45
45
45
45
45
45
45
45
45
45
46
45
46
46
47
46
46
46
46
47
49
51
59
60
78
101
96
101
116
113
108
109
107
114
131
147
152
144
136
129
151
145
136
138
132
131
127
119
115
118
124
127
124
117
115
119
117
119
133
126
128
132
129
139
133
137
140
146
136
129
121
114
119
118
116
117
116
112
104
104
120
115
108
104
105
101
103
102
95
91
89
88
92
100
100
100
93
89
86
85
80
79
87
82
86
87
81
77
72
69
65
63
60
58
56
57
55
54
52
52
51
50
49
49
49
49
48
48
48
48
47
47
48
47
48
47
47
46
46
46
46
46
47
46
46
45
46
45
45
45
45
45
45
45
44
45
45
45
45
45
45
45
44
45
45
45
45
45
45
46
45
45
45
45
45
46
45
45
45
45
45
45
45
45
45
46
45
45
45
45
45
45
45
45
45
45
45
45
46
45
46
45
45
45
45
45
45
45
46
45
45
45
45
45
45
45
45
45
45
45
46
47
46
46
46
46
47
46
46
46
46
46
46
46
45
46
45
46
45
46
45
45
45
46
45
45
45
45
45
45
45
45
45
46
46
45
45
45
46
45
46
45
46
45
46
45
45
45
45
45
45
45
45
44
45
45
45
45
45
45
46
45
45
45
46
45
45
46
45
45
45
45
45
45
45
46
45
46
45
46
45
46
45
46
45
46
45
45
45
45
45
45
45
45
45
45
45
45
45
45
45
46
45
45
45
45
45
46
46
46
46
46
46
46
46
45
46
45
46
45
46
45
46
45
46
45
46
45
45
45
45
45
46
45
46
46
46
46
45
46
46
46
46
46
45
46
45
45
45
45
45
45
45
46
45
46
45
45
45
45
45
45
45
45
45
45
45
45
45
45
45
45
45
45
45
44
45
44
45
45
45
45
45
45
45
45
45
44
45
44
45
45
45
44
45
45
45
45
45
45
45
45
45
45
45
45
45
45
46
46
45
45
45
46
45
46
45
46
45
46
46
46
46
46
45
46
45
46
45
46
46
46
46
45
45
45
45
45
45
45
46
45
45
45
45
45
45
45
45
45
45
45
45
45
45
44
45
45
45
45
45
45
45
45
45
45
45
45
45
45
45
45
45
45
45
45
45
45
45
46
45
46
45
46
45
46
45
45
45
45
45
46
45
46
45
45
45
45
45
45
45
45
45
46
45
46
46
46
46
46
46
46
46
45
46
45
46
45
45
46
46
45
46
45
46
45
46
45
46
45
46
45
46
45
45
45
46
46
46
46
46
47
46
47
46
46
46
46
46
46
45
46
46
46
45
46
45
46
45
46
46
46
45
46
46
46
46
46
47
46
46
46
47
47
47
46
47
46
46
46
47
46
46
46
47
46
46
45
46
45
46
46
46
45
46
45
46
46
46
46
46
46
46
46
46
46
46
46
46
46
46
46
46
46
46
46
46
46
45
46
45
46
45
46
46
46
45
46
45
46
45
46
45
46
45
45
45
45
46
46
46
46
45
45
46
45
46
46
46
46
46
45
46
46
46
45
46
46
46
45
46
46
46
45
46
45
46
45
45
45
45
45
45
45
45
46
46
46
46
46
45
46
45
46
45
46
45
45
45
46
45
46
46
46
46
46
45
45
45
45
45
45
45
45
45
45
45
45
46
45
45
45
46
45
45
45
45
45
46
45
46
45
46
45
45
45
45
45
45
45
45
45
45
45
45
45
45
45
45
45
45
46
45
46
45
46
45
46
45
45
45
46
45
46
45
46
45
46
45
46
45
46
45
45
45
45
45
45
45
45
45
45
45
45
45
45
45
45
45
45
45
45
46
45
46
45
46
45
46
45
45
45
46
45
45
45
45
45
45
45
45
45
45
45
45
46
45
46
46
46
46
46
45
46
45
46
45
46
45
46
45
46
45
46
45
46
45
46
45
46
45
46
45
46
45
46
46
46
46
46
46
46
46
46
46
46
46
46
46
46
46
45
46
45
46
45
46
45
45
45
45
45
45
45
45
45
45
45
45
45
45
45
45
45
45
46
45
45
45
46
45
46
45
45
45
45
45
45
45
45
45
45
45
45
45
45
45
45
44
45
45
45
45
45
45
46
46
46
46
46
46
46
46
46
46
46
46
46
46
45
46
46
46
45
46
45
46
45
46
46
47
46
46
46
46
45
45
45
45
46
45
45
45
45
45
46
46
46
45
46
46
46
46
46
45
46
45
46
45
46
45
46
45
46
45
45
45
45
45
45
45
45
45
45
46
46
46
46
46
46
46
45
46
45
46
45
46
45
46
45
46
45
46
46
46
45
46
45
46
46
46
46
45
45
45
45
45
46
45
46
45
46
45
46
45
46
45
46
45
46
45
46
45
46
45
46
45
46
45
46
45
46
45
45
46
46
46
46
46
46
46
46
46
46
46
46
46
45
46
45
46
45
46
45
46
45
46
46
46
46
47
46
47
46
46
46
46
46
46
46
46
46
46
46
46
46
46
46
46
46
46
46
46
47
46
47
48
49
48
48
47
48
49
50
51
55
62
61
60
59
58
56
56
56
58
57
57
55
54
53
53
53
52
51
52
51
50
50
51
52
51
50
51
50
50
49
49
50
52
52
52
51
51
51
50
51
51
51
51
51
50
50
50
50
50
50
50
50
49
49
49
49
49
49
48
49
48
49
48
48
47
49
49
48
48
48
47
47
48
48
49
48
48
48
48
50
50
49
49
49
50
49
49
49
49
49
50
48
48
48
49
49
49
49
49
48
49
47
48
48
48
49
50
51
51
52
53
53
52
51
50
49
49
49
48
49
48
48
48
48
48
48
48
48
47
47
47
47
47
47
46
47
46
46
46
46
46
46
46
46
46
46
46
45
46
47
47
46
46
46
47
47
47
46
46
45
46
45
46
46
46
45
46
46
47
46
47
47
47
47
46
46
46
46
46
47
46
46
46
46
46
46
46
46
45
46
45
46
45
46
45
45
45
46
46
46
46
46
45
46
45
46
45
46
45
46
45
46
46
46
46
46
46
46
46
46
46
46
46
45
46
45
46
45
46
45
46
45
45
45
46
45
46
45
46
46
46
45
45
45
45
45
45
45
45
46
46
46
46
46
46
46
45
46
45
45
45
46
45
46
45
46
45
46
45
46
45
46
45
45
45
45
46
45
46
46
46
46
46
46
46
46
46
45
46
46
46
45
46
45
46
45
46
45
46
45
46
45
45
45
45
45
45
45
46
45
45
45
45
46
46
46
46
46
45
45
45
46
45
46
45
45
45
45
45
46
44
45
45
45
45
46
45
46
45
45
45
45
46
45
45
45
45
45
45
46
46
46
46
46
46
46
46
45
46
45
46
46
46
46
46
45
46
45
46
45
46
45
45
45
46
46
45
45
45
46
45
45
46
46
45
46
45
46
45
46
45
46
45
46
45
46
45
46
45
46
45
46
46
46
45
46
46
46
46
46
45
45
45
45
45
46
46
46
46
46
46
46
46
45
46
46
47
45
46
45
46
45
46
45
45
45
46
46
46
45
46
45
46
45
45
45
46
46
45
46
45
45
46
46
45
46
46
46
45
46
45
46
45
46
46
46
46
47
45
46
46
46
45
46
46
46
47
46
46
46
46
46
46
45
46
45
46
45
46
45
46
45
46
45
46
45
46
45
46
45
46
45
45
45
45
45
45
45
45
45
45
46
46
46
46
45
45
46
46
46
46
46
46
46
46
47
46
46
45
46
45
46
45
46
45
45
45
45
45
46
45
46
45
45
45
46
46
46
46
46
46
46
45
45
45
45
46
45
45
45
46
45
46
46
46
45
46
45
46
45
46
45
45
45
45
45
45
45
45
45
45
45
45
45
45
45
45
46
46
46
46
46
45
46
45
45
45
45
44
46
45
45
45
45
44
44
44
44
44
44
44
44
45
44
45
44
45
44
45
45
45
45
45
45
45
45
45
45
45
44
45
44
45
44
45
44
45
44
45
45
45
44
45
45
45
45
44
45
45
45
45
45
45
45
45
45
44
45
44
45
44
45
44
45
44
45
45
45
45
46
45
45
45
46
45
45
45
44
44
44
44
45
45
45
45
45
45
45
45
45
45
45
45
44
45
45
45
45
46
45
46
45
45
45
45
45
45
44
45
46
46
46
45
46
46
46
46
46
46
46
45
46
45
46
45
45
45
45
45
45
45
45
44
45
44
45
44
45
45
45
45
45
45
45
45
45
45
45
45
45
45
45
45
45
45
45
45
45
45
45
45
45
45
44
45
44
45
44
45
45
45
45
45
44
45
45
45
45
44
45
45
45
44
45
45
45
44
45
45
45
45
45
44
45
44
45
44
45
44
45
45
46
46
47
46
46
45
46
46
46
46
45
45
45
45
45
45
45
46
46
46
45
46
45
46
45
45
45
45
45
45
45
45
45
46
45
46
45
46
45
46
45
46
45
45
45
45
45
45
45
46
46
46
46
46
46
46
46
45
46
45
45
45
45
45
46
45
46
45
46
46
47
46
46
45
46
45
46
46
45
45
45
46
46
46
45
46
45
45
45
45
45
45
45
46
45
46
45
46
45
46
46
46
45
46
45
45
45
45
45
45
44
44
45
45
45
44
45
45
45
44
45
44
45
44
45
44
45
45
46
45
45
45
46
45
45
45
45
44
45
45
45
45
45
45
45
45
45
45
45
46
46
46
46
46
45
45
45
45
45
45
45
45
44
45
44
45
45
45
45
46
45
45
45
45
45
45
45
44
44
44
45
46
46
46
46
46
46
45
45
45
45
44
45
44
45
44
45
45
45
45
45
45
45
45
45
44
44
44
44
44
44
44
45
45
45
45
45
45
46
45
45
46
45
45
45
46
45
45
45
45
44
45
45
45
44
45
44
45
44
45
44
44
44
44
44
44
44
44
44
45
45
45
45
45
45
45
46
45
45
45
46
45
46
44
45
45
45
46
46
45
46
45
45
45
45
45
45
45
45
45
45
44
45
44
44
45
45
45
45
45
44
45
44
45
45
46
45
46
45
45
45
45
45
45
45
46
46
46
46
46
46
46
46
45
45
46
46
46
47
46
47
46
46
46
46
46
46
46
46
46
46
46
46
46
46
45
46
45
46
45
46
45
45
45
45
45
45
45
45
45
45
46
46
46
46
46
46
46
46
46
46
46
45
46
45
45
45
45
45
46
45
45
45
46
45
45
45
45
45
45
45
45
45
46
46
46
46
46
46
45
45
45
45
45
45
45
45
45
45
45
45
44
44
45
45
45
45
45
45
45
45
45
45
45
45
45
44
45
45
45
44
45
44
46
45
46
45
45
45
45
45
45
45
45
45
45
44
45
44
45
44
45
45
45
46
46
46
46
46
46
46
46
46
45
45
45
45
45
45
46
46
46
46
46
46
45
46
46
46
45
46
45
45
46
45
46
46
45
45
45
45
45
45
45
45
45
45
45
45
46
45
46
45
45
45
45
45
46
45
45
44
45
44
45
45
45
45
45
45
45
45
45
45
45
45
44
45
45
45
45
45
45
45
45
45
45
46
45
46
45
46
45
46
45
45
44
45
46
46
45
45
45
45
46
45
45
45
45
45
45
44
45
46
46
46
46
45
45
45
45
44
45
45
46
45
45
45
45
45
45
46
46
46
45
44
45
45
45
45
45
45
44
45
44
45
44
44
44
44
44
45
44
44
44
44
44
45
44
45
44
45
44
45
44
45
44
44
44
44
44
44
44
44
44
44
44
45
46
45
46
45
46
45
45
45
46
45
46
45
45
45
45
45
45
45
45
44
45
45
45
45
45
44
45
44
45
44
45
45
45
44
46
46
46
46
45
45
46
46
45
46
45
46
45
46
46
46
45
46
45
45
45
45
45
45
45
45
44
44
44
44
44
44
45
44
45
45
46
45
45
45
45
45
45
45
45
45
46
45
45
45
46
45
46
45
45
45
45
45
45
45
45
46
46
46
45
46
45
45
45
45
45
45
44
45
46
46
45
46
45
45
45
45
45
45
44
45
44
45
45
45
45
45
45
45
44
44
44
45
45
45
45
45
45
45
45
45
45
45
45
44
45
44
45
45
45
45
46
46
46
46
46
46
46
46
46
45
46
45
45
45
45
45
45
45
45
46
45
45
45
45
45
46
45
45
45
46
45
46
46
49
51
51
58
66
74
84
114
124
160
159
162
157
155
156
167
190
195
203
199
201
210
222
248
240
246
250
233
233
227
247
247
246
256
268
264
266
282
263
271
269
281
275
273
263
252
261
263
265
251
237
233
221
216
215
210
207
203
196
186
176
163
148
153
147
137
128
118
108
102
101
94
89
86
82
78
74
71
67
65
63
62
60
59
58
57
56
55
55
55
54
54
52
51
51
51
51
51
51
50
51
50
50
49
49
48
48
48
48
49
50
49
49
49
48
48
48
49
49
48
49
48
48
47
48
47
47
46
47
46
46
46
46
45
45
45
45
45
44
44
44
45
44
45
45
45
45
45
45
46
45
46
45
46
45
45
45
45
44
45
44
45
44
45
44
45
45
45
45
45
45
45
45
45
45
45
46
46
46
46
46
46
46
45
45
45
45
45
46
46
46
46
46
46
46
46
46
45
46
45
46
47
46
46
46
45
45
45
45
45
45
45
46
46
46
46
46
47
46
46
46
46
46
46
46
46
46
47
46
46
45
46
45
45
45
45
46
45
45
45
45
44
45
45
46
45
45
45
45
45
45
44
45
45
45
45
46
45
46
45
46
45
46
45
46
46
47
46
46
46
46
46
46
46
46
45
45
46
45
45
45
45
45
46
45
46
45
46
45
46
45
46
45
46
45
47
45
46
45
46
45
45
47
46
46
45
46
46
45
45
46
46
46
45
46
45
46
45
46
44
45
44
45
45
45
45
46
45
45
46
46
46
46
45
46
45
46
45
45
45
45
45
45
45
45
45
45
46
46
46
45
45
45
45
45
45
45
45
45
45
44
45
44
44
44
45
44
44
44
44
44
44
45
45
45
44
44
44
44
45
45
45
46
45
46
46
47
46
46
45
46
47
47
46
46
46
46
45
46
45
46
45
46
45
45
46
46
46
46
46
46
46
45
46
45
46
45
45
46
46
45
46
44
45
45
46
46
46
46
46
46
46
45
46
46
46
45
45
45
45
44
44
45
44
45
45
45
45
46
45
45
45
45
44
45
45
46
46
47
46
46
45
45
45
45
44
45
44
45
45
44
44
45
45
45
45
44
44
44
44
45
45
45
45
45
46
46
46
45
46
45
45
45
45
45
45
46
46
45
46
45
46
45
45
46
46
46
46
46
46
46
45
46
46
46
46
46
46
46
45
46
46
46
45
45
45
45
44
45
45
46
46
46
45
45
45
46
45
45
46
45
45
45
45
45
45
45
45
45
45
45
45
44
45
44
45
44
45
44
45
44
45
46
46
45
46
46
46
45
45
45
44
44
44
44
44
44
44
44
44
44
44
45
44
45
45
45
45
45
44
45
44
45
45
45
44
45
45
45
44
44
44
44
44
44
44
44
44
44
44
44
44
44
44
44
45
44
44
44
44
45
45
44
45
45
45
45
46
45
46
45
45
45
45
45
