77
77
76
77
76
77
77
77
77
78
78
78
77
78
78
77
77
77
76
75
75
76
76
76
76
76
76
76
76
75
76
75
76
76
76
75
76
75
76
76
77
76
77
76
77
77
77
77
77
77
77
77
77
77
77
77
77
77
77
77
77
76
76
76
76
76
75
75
75
76
75
76
75
76
75
75
75
76
76
77
76
77
76
77
76
77
77
77
76
77
76
76
77
77
77
77
77
77
76
76
76
76
76
76
77
77
77
76
77
77
77
76
77
77
77
77
77
76
77
77
77
77
77
77
78
78
77
78
78
78
77
77
76
76
76
76
76
77
77
77
76
77
76
76
75
76
76
77
76
78
77
77
77
77
77
78
77
77
77
77
77
77
77
77
77
77
77
77
77
76
76
76
76
76
76
75
77
75
76
75
75
74
75
74
75
74
75
74
75
75
76
76
76
75
75
76
76
76
76
76
76
76
76
76
76
76
75
75
75
75
74
75
74
75
75
75
74
75
75
75
75
75
75
76
75
76
76
76
76
76
76
76
76
76
76
76
76
76
76
76
75
75
76
75
76
75
75
74
75
74
75
75
76
75
75
75
76
75
76
75
76
76
76
76
77
76
76
76
76
76
76
76
76
76
76
75
76
76
75
75
75
74
73
74
73
74
74
74
74
74
74
74
74
74
74
75
75
76
77
77
78
77
78
77
78
78
79
78
78
77
78
77
78
77
77
77
77
77
78
77
78
78
78
77
79
78
79
79
80
80
81
80
81
81
81
81
82
82
82
82
82
83
83
84
83
84
84
84
83
84
83
84
83
84
83
84
84
84
83
83
83
83
82
84
83
83
82
83
83
83
83
82
83
83
83
83
83
83
83
83
83
82
83
82
83
82
83
82
82
82
82
82
83
82
84
83
84
84
84
85
86
86
86
87
87
87
87
87
86
86
85
85
86
86
86
86
86
85
84
85
84
84
83
84
83
84
83
84
83
84
84
84
84
85
85
86
84
85
86
86
87
87
88
88
88
88
88
88
88
88
87
87
87
86
87
86
86
85
85
84
86
85
86
85
85
84
85
84
85
84
85
85
86
86
86
86
85
85
85
85
86
86
86
87
87
87
87
87
86
86
86
87
86
86
85
86
85
86
84
86
84
86
84
85
85
85
85
86
85
86
86
88
89
88
91
92
92
90
90
89
91
89
89
89
94
101
99
95
98
97
106
103
110
111
106
104
104
104
104
109
113
121
125
128
134
146
145
159
173
171
179
177
173
187
189
198
224
246
264
259
291
286
289
286
276
278
260
244
241
239
244
234
256
268
278
277
271
274
273
274
290
271
278
291
293
295
273
264
265
265
272
260
258
243
259
250
261
263
258
262
253
245
244
236
235
222
205
193
185
176
168
160
152
147
143
139
134
131
127
127
123
123
120
121
118
117
114
115
114
114
112
113
112
112
112
113
113
113
114
113
113
112
112
112
112
110
110
108
108
106
106
104
105
103
104
103
103
103
104
103
103
102
101
101
101
100
100
100
100
101
100
101
100
100
99
100
99
99
98
98
97
98
97
97
97
99
97
98
96
97
96
97
96
97
97
98
97
99
99
99
99
98
98
97
97
96
95
94
94
93
93
93
93
91
91
90
91
91
89
89
89
89
92
90
90
91
90
90
89
91
91
91
92
91
93
94
93
93
92
93
93
94
93
94
93
94
94
94
93
94
93
93
92
92
91
91
91
90
88
89
88
90
90
90
90
90
90
90
91
91
92
92
93
91
92
92
92
92
92
92
92
91
92
90
91
90
90
90
90
89
89
89
89
88
89
89
90
90
91
90
90
89
89
89
89
89
88
89
88
87
86
87
87
88
88
87
87
88
88
89
88
90
89
89
88
88
87
88
88
88
88
89
89
90
89
90
90
90
90
91
91
91
90
91
90
89
88
88
88
88
89
88
88
88
89
89
90
88
89
89
90
89
89
88
89
89
89
88
89
89
89
90
91
89
89
90
90
89
89
89
89
89
89
88
88
87
87
88
87
88
87
89
88
91
89
90
88
89
87
88
88
89
88
88
89
89
88
88
88
88
87
87
89
90
90
89
89
88
89
88
88
87
87
86
87
86
86
86
87
86
87
86
89
89
89
88
88
88
90
89
89
89
89
89
88
88
88
89
89
88
87
89
89
90
89
90
91
91
90
91
90
91
89
90
89
90
89
90
89
89
89
90
89
91
90
91
91
90
91
91
90
90
90
90
90
89
89
88
89
89
89
89
89
89
88
87
88
88
89
87
88
87
89
88
88
87
87
87
88
88
88
88
88
88
88
89
88
88
87
88
88
88
88
88
88
88
88
88
87
87
87
87
86
87
86
89
88
89
89
89
89
89
88
90
89
89
89
90
88
89
89
89
90
90
90
90
90
90
91
90
89
89
89
89
89
88
88
87
86
87
86
85
86
85
87
86
88
86
87
87
88
88
89
88
89
88
88
89
89
89
89
89
89
88
88
88
89
90
89
89
88
88
87
88
88
88
86
87
86
87
86
89
86
87
87
87
89
89
88
89
90
90
90
89
90
89
90
90
90
90
90
90
91
90
90
89
89
88
89
87
88
87
89
87
89
87
87
86
89
88
89
88
88
88
87
87
88
87
87
87
87
88
87
87
87
87
87
88
88
88
87
86
86
86
85
86
87
87
85
86
86
89
87
89
88
89
88
89
89
88
88
88
88
90
90
90
89
89
89
88
89
89
89
89
89
88
89
87
88
88
87
87
87
87
88
87
89
88
90
88
89
88
89
88
88
88
88
88
88
88
88
89
88
88
88
89
89
88
88
89
87
87
87
86
87
88
86
87
86
86
85
86
84
85
85
85
85
85
85
86
86
87
88
88
87
87
88
87
88
89
89
88
88
88
89
88
88
87
87
86
86
85
86
85
85
85
85
85
86
86
87
87
88
86
87
88
88
88
89
91
96
96
98
94
94
98
101
100
101
97
99
103
99
116
113
107
103
102
102
102
106
104
106
101
105
106
106
105
102
106
107
107
103
101
98
97
96
94
96
96
96
99
95
96
103
103
100
105
103
101
102
111
107
109
108
103
103
100
100
97
93
92
89
87
85
83
80
79
77
78
80
79
78
79
79
78
78
76
76
76
80
82
84
85
83
82
81
80
78
78
79
79
80
79
79
79
80
80
79
80
82
82
83
82
82
82
81
81
78
80
80
79
78
79
79
78
79
79
79
80
79
77
77
76
75
74
76
75
76
78
77
77
77
77
79
79
79
79
79
79
78
79
79
78
78
78
77
78
78
80
79
78
78
77
77
78
76
77
77
78
77
77
75
76
77
77
76
77
77
76
76
78
78
77
77
76
77
77
78
77
76
77
77
77
76
76
76
75
76
75
74
74
75
76
76
76
76
76
76
76
78
76
78
78
79
79
80
80
80
81
81
80
80
79
80
80
79
80
80
80
79
79
78
79
78
78
77
78
78
78
78
79
78
79
79
79
78
78
77
77
77
76
77
77
77
77
76
77
77
77
78
79
78
78
78
79
78
77
78
77
76
76
76
76
76
76
77
76
77
77
78
78
78
78
79
78
77
77
77
77
78
77
77
78
78
77
78
78
77
78
78
79
79
77
76
77
76
77
77
77
76
77
77
77
77
77
76
77
77
77
76
77
77
78
78
78
78
78
79
79
78
78
78
77
77
76
77
76
77
77
77
76
76
75
76
76
75
76
75
75
76
77
77
77
77
77
77
75
76
77
77
76
76
76
77
77
77
77
77
76
76
77
77
76
76
76
75
76
75
75
76
76
75
75
75
75
74
76
76
77
77
78
77
78
78
78
78
77
76
77
77
76
76
77
76
77
77
76
77
76
76
76
77
75
77
76
76
75
76
75
76
77
76
75
75
75
77
76
77
77
77
78
77
78
78
78
78
78
77
77
78
78
78
77
76
77
76
77
76
77
76
76
76
76
76
76
76
76
77
77
77
77
77
78
78
78
78
78
77
77
75
76
76
77
77
77
77
77
77
78
78
77
77
76
77
77
77
76
76
75
75
76
76
76
76
77
77
77
78
78
79
78
78
78
79
79
79
78
78
78
77
78
78
78
78
79
78
78
77
78
78
78
77
78
77
78
76
76
76
75
75
76
75
76
77
77
77
77
77
77
78
78
78
78
78
79
77
77
76
75
75
75
75
75
73
73
76
75
75
74
74
73
74
73
75
75
75
74
75
76
76
77
77
76
77
77
77
76
77
77
77
77
77
78
77
77
77
75
74
74
74
73
73
75
74
76
77
76
74
76
76
77
76
77
77
77
78
79
78
77
78
78
77
77
77
76
76
78
77
77
78
77
77
76
77
75
76
75
76
76
77
77
79
78
78
78
77
77
76
76
76
77
77
77
77
76
76
76
76
76
76
76
77
77
77
77
76
77
76
77
77
76
76
77
77
78
77
78
77
77
77
78
77
77
76
76
76
77
77
77
77
77
77
78
78
78
77
78
77
77
78
78
77
78
77
77
78
77
76
75
77
76
77
76
74
75
81
81
79
79
79
77
78
79
79
79
79
77
77
79
77
75
74
77
80
80
79
79
83
85
91
97
95
95
96
98
114
134
135
142
140
134
131
131
133
140
149
150
153
151
153
156
167
187
185
182
204
215
226
228
226
224
225
215
212
207
203
208
198
197
188
188
183
172
180
185
202
212
243
253
234
223
224
214
205
197
199
193
209
214
212
206
197
203
189
190
175
171
157
148
139
131
131
126
118
113
108
104
100
98
95
94
92
89
89
87
86
86
85
84
83
82
80
79
79
81
83
84
83
82
84
82
79
79
77
77
77
77
78
78
78
79
79
79
80
79
78
77
78
78
77
77
76
75
75
75
75
75
75
76
76
76
76
76
75
76
75
76
75
76
76
76
77
77
76
77
75
76
75
76
77
77
77
77
76
76
77
78
78
78
77
77
78
77
77
77
77
77
77
77
78
76
77
76
77
76
77
76
76
75
76
75
76
76
76
76
76
76
76
74
74
74
74
74
74
74
75
74
74
75
74
74
74
75
74
75
75
74
74
75
74
76
76
77
76
77
76
77
76
77
76
76
75
75
76
76
76
76
76
76
76
76
75
75
76
76
77
76
75
75
75
75
76
75
75
74
75
74
74
74
75
75
74
76
76
75
75
76
77
77
79
79
79
79
79
79
78
78
78
77
77
76
76
76
76
75
75
75
74
74
74
76
75
77
76
77
76
78
77
77
77
77
77
77
77
77
77
77
78
79
77
77
77
77
78
78
78
77
77
76
76
76
76
76
78
77
79
78
78
78
78
77
77
75
75
74
75
75
75
76
76
76
76
77
78
77
77
77
76
75
75
74
74
75
74
75
75
75
74
75
75
75
74
75
75
76
76
76
75
75
76
76
76
75
75
75
76
75
75
74
75
75
75
76
75
76
75
75
75
74
75
75
77
76
75
74
75
74
74
73
74
74
74
74
74
73
73
73
73
74
75
75
76
76
76
76
77
76
77
76
76
76
75
76
75
75
75
74
74
75
75
76
75
76
76
76
75
75
75
74
74
74
75
75
75
76
76
76
75
75
74
75
75
75
74
74
74
74
75
75
75
74
74
73
74
73
74
73
75
75
74
73
77
75
76
76
77
76
77
77
77
77
77
77
77
76
77
76
76
75
75
75
76
77
77
76
76
76
75
76
75
76
76
76
75
74
72
74
74
74
74
75
74
74
76
77
76
76
76
76
76
76
76
76
76
75
76
77
76
76
76
75
75
75
75
74
75
75
75
74
75
74
74
74
75
74
74
74
75
75
77
76
77
77
77
75
75
75
75
75
75
75
76
75
75
76
75
74
74
75
74
76
77
76
75
75
74
74
73
75
74
75
75
76
76
76
77
77
77
77
76
76
76
75
75
76
76
76
75
75
75
75
76
75
76
75
75
74
74
73
74
73
75
74
74
73
73
73
73
73
74
74
75
74
74
75
75
75
75
75
75
75
76
75
75
75
75
75
75
74
74
74
73
74
74
74
74
74
73
73
73
73
73
75
74
75
73
74
74
76
75
75
75
75
75
76
75
75
75
75
74
74
73
73
74
73
73
73
73
74
74
74
74
74
75
74
77
76
76
78
80
82
81
80
79
80
82
84
85
86
88
96
92
94
92
91
94
96
94
95
95
93
108
112
121
118
114
111
109
105
107
113
130
126
122
123
123
135
136
138
131
138
132
142
142
134
127
121
128
123
142
151
148
146
142
140
133
125
126
139
141
152
155
162
150
143
138
144
161
167
184
187
201
185
169
160
149
158
181
196
190
206
188
176
164
153
150
175
177
173
170
160
157
146
136
127
124
120
113
107
103
100
97
94
91
89
87
86
84
81
80
81
81
82
82
80
80
79
78
77
77
78
77
77
77
76
77
76
75
76
77
76
76
76
77
78
79
77
77
77
77
77
77
77
76
75
75
74
74
74
74
74
73
73
74
75
74
74
72
73
73
73
71
71
71
73
74
75
75
76
77
78
78
78
77
77
77
77
77
77
76
76
77
76
77
77
78
79
80
79
79
78
79
78
78
76
77
77
78
77
77
76
76
76
76
77
77
75
75
76
76
75
75
75
75
76
77
76
76
74
74
74
74
74
74
75
76
77
78
78
77
77
77
77
76
76
77
78
77
78
77
77
76
76
75
75
75
75
73
73
72
72
72
73
75
75
76
75
76
77
77
76
76
74
76
75
77
77
80
78
79
78
78
77
78
77
77
77
77
75
75
76
77
77
76
76
77
77
77
77
77
76
76
76
76
77
75
76
76
75
76
76
75
77
75
75
75
76
76
76
76
79
79
78
78
78
78
78
79
79
78
78
78
77
76
76
76
76
77
76
77
76
76
75
75
75
73
73
73
74
74
73
75
74
75
78
78
78
77
76
76
76
75
75
75
75
75
74
74
73
73
72
73
75
75
75
76
76
76
76
76
75
75
76
76
76
76
76
77
79
79
79
77
77
75
74
75
75
76
76
76
76
76
77
75
75
75
75
76
76
76
75
74
74
75
75
75
74
76
75
77
77
78
79
78
77
79
78
79
77
77
78
78
78
78
77
77
78
78
79
79
79
79
79
78
77
78
79
79
79
78
78
78
78
77
75
76
77
75
75
74
75
75
76
76
76
75
75
75
76
76
76
74
73
74
75
76
76
76
76
75
75
76
76
76
75
78
77
77
77
77
77
77
76
76
77
77
77
77
77
77
77
78
78
78
78
77
77
77
78
80
80
79
79
79
79
79
79
79
79
79
78
77
78
78
78
77
76
76
77
76
78
78
79
78
78
77
77
77
77
78
78
78
78
79
78
79
78
77
77
77
76
76
75
76
76
76
75
75
75
76
75
76
75
76
76
77
75
76
77
77
77
76
76
76
75
75
74
74
75
75
75
75
74
74
75
75
76
75
76
75
77
77
76
76
77
76
78
77
77
76
77
77
76
75
76
74
75
75
75
76
76
77
77
77
77
78
78
77
77
76
76
76
77
76
77
76
76
75
76
78
77
77
76
79
78
78
77
78
77
79
79
79
78
78
78
79
79
79
78
78
77
77
76
75
74
75
76
76
78
77
76
75
76
77
76
76
77
76
78
77
79
77
78
77
78
77
77
77
78
77
77
76
78
78
77
79
78
78
78
77
77
75
77
77
77
76
82
80
85
84
84
86
85
87
96
93
95
92
92
92
92
88
88
95
98
96
104
113
111
114
113
120
132
129
120
128
158
163
158
156
154
151
154
166
162
153
162
164
169
177
183
201
211
221
217
216
214
228
233
235
227
243
237
246
251
270
280
264
277
269
278
296
287
281
279
281
269
257
285
266
258
257
256
259
257
246
279
291
296
291
285
296
290
312
324
303
283
286
277
272
269
277
278
257
256
241
224
214
209
197
183
172
170
162
151
144
138
134
128
122
117
113
110
109
107
103
100
101
97
97
94
96
93
94
92
93
91
92
90
94
93
92
92
94
92
92
91
91
91
90
90
89
89
89
89
88
88
87
87
88
87
86
85
85
86
86
85
84
86
84
84
83
83
82
82
81
81
81
83
82
82
82
82
82
83
82
82
81
82
82
83
82
81
81
80
78
78
78
77
78
78
79
78
78
78
78
78
78
79
79
79
80
79
78
78
79
78
78
79
81
80
80
81
81
82
82
82
82
81
81
80
79
78
77
77
76
77
76
77
77
77
75
77
76
77
76
77
76
77
76
76
77
77
77
77
78
78
78
78
78
78
77
77
76
76
75
75
75
76
76
76
76
76
77
77
77
76
77
76
77
76
77
76
76
76
77
76
76
75
76
75
76
75
75
75
75
76
76
76
76
76
75
75
75
75
77
77
76
76
76
75
75
76
75
76
75
76
76
76
75
77
76
77
78
78
78
78
79
79
78
79
78
78
77
77
77
77
76
76
76
77
76
76
76
75
76
76
76
76
76
76
78
76
77
76
76
76
77
76
76
74
75
75
76
77
78
77
77
76
76
76
76
76
76
76
77
76
76
76
76
79
78
77
76
76
76
78
77
77
77
78
77
77
77
77
77
77
76
76
77
77
78
78
78
78
77
77
77
77
77
77
77
76
75
75
76
76
75
74
75
75
77
76
76
75
76
76
76
77
77
77
78
77
78
77
78
78
79
79
81
80
80
79
79
78
78
79
81
80
79
78
78
78
77
76
75
75
75
76
75
76
76
76
76
77
76
76
77
78
78
78
78
77
76
76
76
75
74
74
77
78
79
78
77
77
77
77
76
75
76
75
75
75
74
75
75
75
75
75
75
74
74
74
77
77
78
76
76
77
77
76
76
77
77
77
76
76
76
76
77
78
78
78
79
78
77
77
75
74
73
73
73
73
73
74
74
73
74
74
75
77
76
77
76
77
78
78
77
77
77
77
77
76
76
76
76
75
75
75
76
76
77
77
77
76
77
76
77
77
76
75
76
75
75
76
75
75
76
78
79
79
78
77
77
78
78
78
77
78
78
78
77
77
76
78
77
79
78
78
77
77
76
77
75
76
75
76
76
76
75
77
78
77
77
76
76
77
77
77
78
78
77
77
77
77
75
75
75
75
76
75
76
75
75
75
77
76
76
75
75
74
75
76
78
77
79
80
79
78
78
77
78
79
79
78
78
77
76
76
76
75
75
75
76
76
76
77
76
76
75
76
78
79
78
78
79
79
79
78
77
77
76
77
78
78
78
78
78
78
79
78
78
78
76
76
75
75
73
75
74
74
74
74
75
76
76
75
78
76
76
77
77
76
76
77
78
78
78
77
78
77
77
78
78
78
78
77
77
76
76
76
76
76
75
75
75
74
74
75
74
75
74
75
75
76
76
78
76
77
77
77
75
74
73
75
75
75
74
74
74
76
77
82
85
86
84
86
89
91
95
97
107
102
100
102
111
107
101
99
98
97
98
94
94
90
92
94
95
92
91
99
107
108
106
106
103
101
104
103
102
99
99
96
94
94
93
95
96
96
96
96
94
96
95
94
94
94
93
98
96
102
101
99
98
96
92
91
93
93
95
95
95
99
104
103
99
96
96
95
95
96
92
100
105
102
101
103
110
109
114
115
119
115
112
113
120
122
121
121
118
122
124
122
116
109
106
107
106
106
103
106
110
107
104
105
106
106
102
101
102
100
101
100
97
95
96
93
94
94
94
94
93
92
92
92
93
94
93
91
89
87
89
88
90
94
93
92
92
89
88
90
90
90
90
89
92
92
92
92
92
93
92
90
90
92
92
93
92
92
91
93
92
91
91
91
91
92
91
91
89
90
87
86
86
89
86
87
87
87
87
87
87
87
86
85
84
85
85
85
84
84
84
85
84
85
85
84
85
84
83
83
85
85
83
83
82
82
81
81
82
81
80
80
82
81
82
81
81
81
81
79
79
78
79
78
78
78
78
79
79
79
79
78
78
78
79
78
78
78
78
78
78
79
80
80
80
81
80
80
78
79
77
77
78
80
78
79
79
78
77
77
79
79
80
80
80
80
80
80
79
79
78
77
78
77
78
77
79
78
78
77
77
76
77
75
75
76
76
75
76
76
76
76
76
78
79
78
78
79
80
80
80
78
77
77
77
77
77
77
77
76
77
78
77
78
77
77
77
76
77
76
77
78
77
78
77
78
79
79
80
80
80
80
80
80
78
78
79
79
78
78
79
79
79
79
78
78
79
78
79
79
80
79
79
79
80
79
80
80
80
79
80
78
78
78
79
79
79
77
78
77
78
77
78
78
78
79
79
78
79
79
78
79
78
78
78
78
77
77
77
78
78
77
77
77
76
78
78
78
77
77
77
77
78
78
79
79
78
79
78
77
75
75
75
75
75
75
74
73
73
74
74
74
75
74
75
75
76
77
77
76
77
77
77
78
79
79
80
80
80
79
79
80
81
81
81
79
78
79
78
78
78
79
79
81
80
80
79
79
78
77
78
78
79
80
79
80
78
79
79
79
78
78
78
78
80
80
78
78
80
80
78
78
77
77
77
77
76
75
76
75
75
74
76
75
75
74
76
77
76
76
77
77
77
78
79
78
79
80
80
79
79
79
79
79
79
78
78
78
79
79
80
79
79
78
76
77
76
77
76
75
75
75
76
75
74
76
75
76
77
79
79
80
80
81
81
80
79
78
78
78
75
74
73
74
74
74
74
76
77
77
76
75
76
75
75
74
75
75
76
75
76
75
76
75
75
76
76
76
77
77
77
75
75
73
74
75
75
73
74
75
76
74
75
76
75
75
76
76
76
76
75
76
77
76
74
74
74
76
74
74
76
78
77
78
77
77
76
76
77
76
74
74
75
76
79
80
81
80
80
79
78
77
78
78
78
77
78
77
77
76
76
77
78
78
77
78
78
78
78
79
79
78
78
78
78
76
76
75
76
76
75
73
74
74
74
74
75
75
74
72
73
72
73
74
73
74
74
74
73
75
75
76
74
75
75
75
77
77
76
75
75
76
77
77
79
78
77
77
76
76
79
77
76
76
76
77
79
78
77
77
78
77
77
78
79
79
79
79
79
78
78
79
79
79
80
78
79
79
79
79
78
76
76
75
75
76
76
78
77
80
81
81
83
82
82
86
89
89
87
94
97
99
107
108
111
110
125
128
130
135
138
141
154
151
151
161
169
164
176
183
193
187
183
175
167
170
174
193
195
202
194
211
216
233
221
216
217
213
211
216
223
226
225
234
223
233
231
227
232
243
232
219
239
224
211
209
216
211
203
203
198
186
187
185
175
164
160
151
145
135
129
121
124
120
114
108
104
101
97
94
96
94
94
90
89
88
88
89
89
89
88
88
85
82
81
82
85
83
83
82
81
80
80
81
82
81
81
80
79
79
79
79
79
77
76
77
76
76
75
76
75
76
75
76
76
76
77
77
77
77
76
77
77
77
78
77
78
77
77
78
77
77
78
78
79
78
78
79
79
77
78
77
78
77
78
77
76
77
76
75
77
76
76
77
77
76
76
76
76
76
76
76
76
76
77
77
77
76
76
75
75
77
77
78
77
76
76
76
76
77
77
78
77
78
78
78
78
77
77
79
78
78
77
78
78
79
78
77
77
77
77
77
78
78
77
76
76
76
76
75
78
76
75
75
76
74
76
75
74
74
76
75
76
76
77
77
78
77
77
77
77
77
77
76
76
77
77
77
77
76
76
75
76
77
77
77
77
77
77
78
78
78
77
78
76
76
75
76
75
75
75
75
74
74
74
74
75
76
75
74
73
74
74
74
74
74
74
75
75
75
74
75
75
75
74
74
74
75
74
74
74
74
75
74
75
74
75
73
74
75
75
75
75
75
76
75
75
74
74
74
74
75
75
74
74
75
75
75
75
75
75
76
75
76
75
76
76
75
75
75
75
75
75
74
75
76
75
76
75
75
76
77
77
78
79
78
79
78
79
78
77
77
78
78
76
76
76
76
76
75
76
75
75
76
76
75
75
75
75
75
76
77
78
78
78
77
77
77
77
79
78
78
77
77
78
79
78
78
77
76
76
78
77
77
77
77
77
77
76
75
75
76
76
75
75
75
75
76
77
77
76
77
77
77
75
75
75
75
76
76
76
76
75
75
75
74
75
75
75
74
75
75
75
75
75
74
77
76
78
76
77
76
77
77
77
77
77
77
77
76
76
75
75
76
74
76
75
76
77
79
78
78
77
77
76
75
76
76
75
75
74
74
74
74
73
73
73
74
74
74
76
75
74
74
75
74
73
74
74
75
74
74
74
73
75
74
74
73
72
72
74
73
74
74
75
75
74
73
74
74
73
73
74
74
74
74
73
73
74
73
73
73
74
75
76
76
76
75
74
73
73
73
73
75
74
75
74
75
74
76
75
76
75
75
74
74
72
73
73
73
76
76
75
76
75
75
76
76
74
74
73
73
74
74
73
73
73
73
76
75
76
75
76
75
75
74
77
76
76
75
76
74
74
74
74
73
74
73
73
73
73
73
73
72
72
74
74
75
75
75
75
75
75
75
74
74
73
75
74
74
73
74
74
74
73
74
74
75
74
75
74
74
75
76
76
77
77
77
76
76
76
76
76
76
76
76
76
76
75
75
75
75
75
75
75
75
76
76
76
76
77
75
75
75
76
74
74
74
74
74
75
75
75
75
75
74
74
74
75
75
74
73
73
73
73
72
72
72
72
74
73
73
72
73
73
77
77
77
77
78
77
77
77
78
77
77
79
81
80
78
78
79
82
81
78
77
76
77
79
81
89
90
94
94
96
96
96
107
104
111
112
115
108
106
109
111
138
140
139
141
144
141
141
152
167
179
174
176
164
166
164
174
177
169
160
156
168
163
150
139
134
143
146
173
168
165
155
145
139
139
158
180
217
203
189
174
165
156
150
160
172
185
173
160
152
143
136
141
157
170
196
185
171
164
156
151
167
158
152
142
132
126
125
119
113
109
107
108
106
101
97
93
90
86
84
90
93
91
89
88
85
83
81
81
79
77
78
77
77
76
76
76
76
75
76
76
76
76
75
75
74
74
74
74
74
74
74
74
74
73
73
73
72
72
72
73
74
73
73
73
74
74
74
74
74
74
74
73
72
74
75
75
75
75
75
75
75
75
75
76
76
75
74
75
75
75
74
75
74
75
74
75
74
75
74
74
74
74
74
74
73
73
73
73
73
73
74
74
73
74
73
73
72
73
73
73
73
73
73
73
73
73
75
74
74
74
75
74
75
75
76
75
75
75
74
73
74
73
74
73
73
74
75
75
75
73
73
73
73
75
75
74
73
73
73
73
73
73
72
73
73
75
74
75
74
74
74
74
73
73
73
74
74
74
75
76
76
75
76
75
75
75
74
75
74
75
74
74
74
74
75
74
74
73
73
73
73
72
73
73
74
74
75
74
74
74
74
73
75
75
75
74
74
73
74
74
75
74
74
73
74
73
73
73
74
73
73
74
74
74
74
74
74
75
74
74
74
74
73
74
73
73
73
73
72
72
72
73
73
73
73
73
73
73
72
73
72
72
72
72
72
72
72
71
72
71
72
71
72
71
71
71
72
71
72
72
72
72
72
71
72
73
73
72
72
72
73
72
73
73
73
73
73
73
73
72
73
72
72
72
72
72
72
72
72
71
72
72
72
73
72
72
71
72
72
73
72
73
73
74
73
73
73
73
73
73
72
73
72
72
71
72
71
71
71
71
72
71
72
71
71
70
71
71
71
72
72
72
72
72
73
73
73
73
74
73
74
74
74
74
75
74
74
73
73
72
72
72
72
73
72
72
71
72
72
73
72
73
73
72
72
73
72
73
73
73
73
73
73
73
72
73
73
74
73
74
73
73
73
73
73
73
73
73
73
72
73
72
72
72
72
72
71
70
71
71
72
72
73
71
72
73
73
73
74
74
74
73
73
72
73
72
72
71
72
72
72
71
72
73
73
73
73
73
73
73
72
73
72
74
73
74
73
74
74
73
73
73
73
73
73
73
72
73
73
73
73
73
73
73
72
73
72
72
71
71
71
71
72
71
71
71
72
72
72
72
72
73
74
73
73
73
73
73
74
73
73
73
73
73
73
73
73
73
73
73
73
72
72
72
72
72
73
71
71
71
71
71
71
73
72
73
73
73
71
72
71
72
72
72
72
73
72
73
72
72
72
71
70
71
71
72
73
72
72
72
73
73
72
72
74
74
75
74
75
73
74
73
73
73
74
72
72
72
72
71
72
71
72
72
72
73
73
71
72
72
72
72
72
72
72
72
73
75
74
74
73
72
73
73
72
72
72
72
72
72
71
73
72
73
73
74
74
74
73
74
74
75
76
75
73
73
72
73
72
73
74
74
73
73
73
73
73
72
73
72
74
73
73
73
75
74
74
74
75
74
76
75
74
75
75
74
74
74
74
75
75
75
74
73
73
72
72
73
73
74
73
74
73
75
74
74
73
73
73
73
73
73
72
72
71
71
71
71
70
70
71
72
71
71
71
71
72
73
72
72
72
71
71
71
73
73
71
71
71
70
69
70
71
71
72
71
71
72
72
71
71
71
72
71
71
70
71
72
72
72
72
72
73
73
74
72
73
72
72
72
73
71
71
71
71
71
71
74
73
72
72
71
71
72
71
72
70
71
70
71
71
72
71
71
70
71
70
71
71
71
70
70
69
69
69
70
71
71
71
71
73
72
73
72
72
71
71
71
72
72
73
73
74
72
73
73
73
72
73
73
73
76
78
78
77
78
78
79
78
77
78
81
80
79
78
80
77
76
75
75
74
75
79
79
79
81
81
80
82
82
83
83
84
84
87
87
87
87
86
85
86
86
88
86
82
89
90
87
89
90
87
89
93
94
93
102
108
105
109
112
120
129
132
131
143
143
159
158
170
170
166
177
213
210
227
246
252
262
260
264
277
280
272
270
278
273
284
311
292
277
265
259
270
260
272
275
267
281
286
276
296
276
277
279
295
283
297
280
279
265
269
265
260
270
266
270
256
241
240
248
237
222
207
192
195
186
170
160
149
144
139
134
128
121
115
110
106
103
100
98
94
93
93
92
91
90
88
88
87
87
85
85
83
83
82
83
82
82
82
83
83
83
83
83
82
82
80
80
80
80
80
79
79
79
79
77
76
76
76
75
75
74
74
73
73
72
75
73
74
73
72
73
73
72
72
71
72
71
72
72
72
72
72
72
72
72
72
73
73
72
72
72
71
72
71
72
71
72
72
72
71
71
70
71
71
71
70
70
70
70
70
71
71
72
71
71
70
70
70
70
70
70
70
70
70
69
71
71
70
70
70
69
70
70
71
70
71
71
71
70
70
70
71
70
71
70
70
70
71
71
71
71
72
70
71
70
71
70
70
70
70
70
70
70
70
70
70
70
69
69
68
69
69
69
69
70
69
70
69
70
70
70
70
70
70
70
70
70
70
71
70
71
70
71
70
70
70
70
70
70
71
70
70
70
71
70
71
70
71
70
70
69
70
69
69
68
69
69
70
69
70
69
70
69
70
69
70
70
70
70
70
70
71
70
70
70
70
70
69
70
69
71
70
71
70
70
69
70
70
70
69
70
70
71
70
71
71
71
71
71
70
71
70
71
71
71
71
71
70
70
70
70
71
70
71
70
71
71
71
71
71
71
72
71
72
71
71
70
71
71
71
71
72
71
71
71
71
70
71
70
71
70
70
70
70
69
69
70
69
70
69
70
70
71
70
70
70
70
71
71
70
71
71
71
70
71
70
71
71
71
70
71
70
71
71
71
71
72
72
72
73
72
72
72
72
71
72
71
70
71
72
71
71
70
70
70
70
69
70
70
70
70
71
70
71
71
71
70
71
70
71
71
70
71
71
71
72
72
71
71
71
71
71
72
70
71
69
70
70
71
70
71
71
71
70
71
70
70
71
71
71
71
71
71
71
71
71
71
70
70
70
70
70
70
71
71
71
70
71
71
73
72
73
72
72
71
72
72
72
72
72
72
73
73
73
73
73
73
72
71
72
70
70
70
70
71
71
71
70
70
70
70
69
70
69
71
70
72
71
71
71
72
71
71
70
71
70
71
71
71
71
72
71
72
72
72
71
71
71
71
71
71
71
71
70
70
70
69
69
69
68
68
69
71
71
70
71
70
70
70
70
69
70
69
70
70
70
70
70
70
70
69
69
68
69
70
70
71
70
70
69
70
69
69
69
69
69
71
72
72
72
72
72
72
71
71
71
71
71
71
71
72
71
71
70
71
70
71
71
71
71
70
70
70
70
71
71
70
71
71
71
70
71
71
71
71
72
72
73
73
73
72
72
72
73
73
73
70
71
70
71
70
71
70
71
70
71
69
69
69
69
70
70
70
69
71
70
71
70
71
71
73
73
74
73
73
74
75
74
74
73
73
72
72
72
72
71
71
71
72
70
71
71
71
71
71
72
71
71
71
73
71
71
72
71
70
70
70
71
71
72
72
73
71
72
72
72
73
74
74
74
73
73
73
73
73
72
72
72
72
72
70
70
71
71
71
70
71
71
71
70
71
71
71
74
74
74
74
73
73
73
74
74
74
75
75
76
76
76
77
77
76
75
78
75
76
78
77
76
77
89
89
98
97
94
98
104
105
106
101
98
97
95
94
93
95
96
94
93
91
92
95
94
93
96
99
107
109
110
109
107
106
104
101
103
102
105
102
100
107
112
108
110
110
108
106
104
102
101
100
98
96
97
94
94
93
92
91
92
89
87
84
84
81
81
81
80
79
81
82
82
81
80
79
79
78
78
79
79
78
77
79
80
82
83
82
82
82
82
80
80
79
79
79
78
78
78
77
76
76
78
76
77
79
78
79
78
79
78
77
76
77
77
77
76
77
77
77
76
77
76
76
75
75
74
74
74
74
74
74
76
76
76
75
75
74
74
73
74
73
74
75
74
73
74
73
74
73
74
73
74
74
74
74
75
74
74
73
75
74
74
73
73
73
73
73
72
72
72
72
72
72
71
72
71
72
71
72
71
71
71
72
71
72
72
73
73
74
74
74
73
74
73
73
73
73
73
73
74
74
74
74
73
72
72
72
72
71
72
72
72
71
72
71
72
71
71
71
72
72
72
73
72
72
73
73
73
73
73
72
73
72
72
72
72
72
72
72
72
74
73
74
73
74
73
73
73
74
73
73
73
73
73
73
72
73
72
72
73
73
72
73
71
72
71
72
71
72
72
73
72
72
71
71
72
72
73
72
73
72
73
72
73
72
73
72
72
72
72
71
72
71
72
72
72
72
73
72
73
72
73
73
74
74
74
73
73
72
71
71
71
71
71
71
71
72
72
72
72
72
72
73
72
73
72
72
72
72
71
73
72
73
71
72
72
72
74
74
73
73
72
72
71
71
71
71
71
70
71
71
71
71
71
71
72
71
73
72
72
72
72
72
74
73
74
73
73
73
74
73
74
73
73
73
73
71
72
72
72
72
72
72
72
72
72
72
71
72
71
73
73
74
73
73
73
72
72
73
72
73
72
73
73
74
73
73
73
73
72
73
72
72
72
72
71
71
72
72
72
72
72
71
71
70
71
71
71
70
71
70
72
72
73
72
73
73
73
74
73
74
74
73
73
73
73
72
73
72
72
72
72
72
71
71
71
71
70
71
70
71
71
71
71
72
72
73
73
73
72
73
72
72
71
72
71
72
71
71
72
73
73
73
72
72
72
72
73
73
73
73
72
72
72
72
73
71
72
72
72
71
72
71
72
72
73
73
73
72
73
73
73
72
73
71
71
70
71
70
70
70
71
71
71
73
72
71
71
71
70
71
71
72
72
72
72
72
72
73
73
74
73
73
72
73
72
73
72
72
71
72
72
72
72
73
72
73
73
73
72
73
73
72
72
72
73
71
72
72
72
71
71
70
71
71
72
71
72
71
72
71
73
72
73
72
72
72
72
72
72
72
72
72
72
72
72
73
72
72
72
72
72
72
72
72
72
71
71
71
72
72
72
73
72
72
72
73
73
73
73
73
73
74
74
74
73
73
73
73
72
72
72
72
72
72
73
72
72
72
73
72
73
73
74
73
74
75
75
74
75
74
74
73
73
73
73
74
74
73
73
73
73
72
72
72
72
71
71
71
71
71
71
71
71
71
71
71
71
72
70
72
71
71
71
72
71
72
73
73
73
73
73
74
74
74
73
73
73
74
74
73
73
73
73
72
73
72
73
72
72
72
71
71
72
71
72
71
72
71
71
70
70
70
71
72
72
72
72
71
72
71
71
70
71
70
70
70
70
71
70
71
70
71
71
71
70
71
70
72
71
72
72
73
72
73
73
74
73
73
72
72
72
72
71
72
72
72
71
71
72
72
73
72
72
72
72
71
72
71
72
72
72
70
71
70
70
69
70
69
70
70
71
70
70
70
71
71
71
71
71
71
71
71
72
71
72
70
71
71
70
70
70
70
69
70
69
70
71
72
72
72
72
72
72
73
72
73
73
73
73
73
72
72
72
72
72
73
72
72
72
72
72
72
73
72
73
73
72
72
72
72
72
71
72
71
72
72
74
73
73
73
73
72
73
72
72
71
72
71
72
71
71
71
71
71
71
72
72
72
72
71
71
72
72
72
72
72
72
73
72
73
72
73
73
73
72
73
72
73
72
73
73
74
74
73
74
73
73
73
72
72
71
71
71
72
72
71
72
71
72
72
73
73
72
71
71
72
73
73
73
74
76
76
80
81
83
86
84
89
88
86
84
82
82
81
80
81
81
81
87
84
85
88
86
94
101
98
112
112
117
153
145
141
149
149
161
166
174
173
172
189
210
227
261
267
253
235
272
258
250
244
256
259
245
228
216
206
225
280
264
253
248
246
236
248
243
241
226
234
231
237
232
226
227
230
221
207
196
192
198
224
215
211
220
212
218
206
207
208
209
194
192
206
204
195
179
177
177
208
207
194
202
198
200
209
214
218
219
217
229
235
231
238
247
226
222
224
213
213
203
203
195
188
181
182
183
178
188
223
224
224
215
204
209
200
208
213
219
220
212
201
211
214
220
219
213
207
220
216
208
192
188
188
202
207
220
212
212
223
232
240
231
212
240
231
230
232
239
244
240
225
231
212
199
194
190
182
192
192
186
199
200
189
175
170
184
185
174
177
178
169
168
166
162
158
158
156
175
181
184
180
170
180
176
176
177
174
173
175
166
161
161
156
160
151
142
140
155
146
147
148
143
144
144
144
141
147
170
184
178
183
187
180
176
173
162
159
170
165
168
171
161
155
164
168
155
162
159
153
150
164
161
165
171
166
167
162
158
157
150
149
147
142
137
130
126
127
130
125
120
119
123
120
124
130
128
132
125
137
143
171
166
163
163
168
159
147
154
150
151
147
156
153
171
162
162
160
150
161
156
156
154
146
152
157
153
153
143
136
142
143
149
146
150
156
158
153
161
155
150
140
141
140
143
137
134
143
141
137
138
145
153
163
177
173
179
172
168
160
168
162
159
173
168
165
168
172
175
166
164
162
171
168
158
153
146
137
129
121
120
129
155
150
148
144
137
137
132
135
135
145
144
149
146
151
144
141
151
146
141
133
146
145
141
140
146
146
140
152
144
138
137
140
137
130
165
156
152
143
140
140
151
150
151
173
167
157
149
146
139
135
140
136
134
130
125
124
118
115
116
117
126
136
138
137
153
148
144
142
135
131
129
129
132
131
125
129
131
127
127
131
126
122
122
129
138
136
133
149
149
149
142
143
136
130
123
118
116
117
115
129
127
129
127
131
125
127
124
123
127
126
128
132
149
138
136
136
129
123
116
111
117
122
121
113
109
110
124
130
125
122
119
128
127
128
123
121
121
122
122
126
125
120
126
122
119
115
116
119
114
110
106
108
104
108
104
102
100
97
95
94
90
89
86
84
82
81
80
82
80
82
83
83
83
82
80
80
78
78
78
78
78
77
77
76
77
76
76
75
76
75
76
75
75
75
74
74
75
74
74
73
73
73
73
72
72
72
72
70
71
70
71
70
71
70
70
70
70
70
69
70
69
70
69
70
70
71
70
70
70
70
70
71
70
71
69
69
68
69
69
69
67
68
68
68
68
68
68
68
67
68
67
68
68
68
68
68
68
67
68
68
68
68
68
68
69
69
70
69
69
68
69
68
69
68
69
69
70
69
70
69
69
68
69
69
69
68
68
68
68
68
67
67
67
68
67
68
67
68
68
68
68
68
68
69
68
69
68
69
68
69
68
69
68
69
68
69
68
69
68
69
68
69
68
68
68
68
68
68
68
68
68
67
68
67
68
67
68
66
68
67
68
68
68
67
69
68
69
68
68
68
68
68
68
68
69
67
68
68
68
68
67
67
67
68
67
67
67
68
67
68
68
68
68
68
68
68
67
68
68
68
68
68
68
69
68
68
67
68
67
68
67
68
68
68
68
68
67
67
68
67
67
67
67
67
67
67
67
67
68
67
68
68
68
68
68
68
69
68
69
68
69
68
69
68
69
68
68
68
68
67
68
67
67
68
67
67
67
67
67
67
67
67
66
67
67
67
67
67
67
67
67
67
67
68
67
67
67
68
67
68
67
67
67
68
67
67
67
67
67
67
67
67
67
67
67
67
67
67
67
66
67
66
67
67
67
67
67
67
68
67
68
67
68
67
68
67
67
67
68
67
68
67
67
67
67
67
67
68
67
67
67
68
67
67
67
67
67
67
67
67
67
68
67
68
67
68
67
68
67
68
67
67
68
68
68
68
68
68
68
67
68
68
68
68
68
67
68
67
68
67
67
66
67
68
68
68
69
68
69
68
69
68
69
68
69
69
69
69
69
68
68
69
69
68
68
68
67
68
68
68
67
68
67
67
67
68
68
69
68
68
69
70
70
72
71
71
70
70
69
70
70
70
69
69
68
68
68
68
68
68
68
68
68
68
67
68
69
68
69
68
68
68
69
68
69
69
70
70
70
69
69
69
70
69
69
69
70
69
69
69
69
69
69
69
69
69
70
70
70
70
70
71
70
70
70
71
71
72
72
71
71
71
70
71
70
70
70
71
70
70
71
71
70
70
70
70
70
70
69
69
69
69
69
68
70
69
70
70
70
70
70
70
70
70
70
70
70
70
71
71
71
71
72
71
72
71
72
71
71
71
71
71
71
70
70
70
69
70
69
69
68
68
67
68
67
67
67
67
67
68
67
68
67
68
68
68
68
68
68
69
68
69
68
69
68
69
68
68
68
68
68
67
67
67
67
66
67
66
67
66
67
66
67
66
67
66
67
66
67
66
67
67
67
66
67
66
67
66
67
66
67
66
67
66
66
66
66
66
66
66
66
66
66
66
66
66
66
67
66
66
66
67
66
67
66
67
66
67
66
67
66
67
66
67
66
66
65
66
65
66
65
66
66
66
66
65
65
65
65
64
65
65
66
66
67
66
67
66
67
66
67
67
67
67
68
67
68
67
68
68
68
68
68
68
68
68
68
68
68
67
67
67
67
68
67
68
68
69
68
68
68
68
68
68
68
68
67
68
67
68
67
68
67
68
67
68
68
68
68
68
68
68
67
67
67
67
68
67
68
67
67
67
68
67
68
68
68
68
68
67
68
68
69
68
68
68
68
67
68
67
68
67
68
67
68
68
68
68
67
68
68
67
67
68
68
69
68
69
68
69
69
70
69
69
69
69
69
70
69
69
69
69
69
69
69
69
69
69
68
68
68
68
68
67
68
67
68
68
69
68
69
68
69
68
69
69
69
69
70
69
70
70
70
69
70
69
69
68
69
67
68
67
68
68
68
69
69
68
69
69
69
69
68
69
68
68
68
68
67
68
68
68
68
69
69
69
69
69
69
69
69
70
69
70
69
69
68
68
68
69
68
68
68
68
68
68
69
69
69
68
68
68
68
68
69
68
69
68
69
69
69
68
69
68
68
68
68
67
67
67
67
68
68
67
68
67
67
67
67
68
67
67
67
66
66
66
66
66
65
66
65
67
66
67
66
67
66
67
66
67
66
66
65
66
66
66
65
66
65
66
66
66
66
66
65
65
66
65
66
66
66
66
66
65
66
66
66
66
67
67
68
67
68
67
67
67
68
67
67
66
67
66
66
66
66
66
66
66
66
65
65
65
65
66
65
66
65
66
65
66
65
66
65
67
66
67
66
67
66
67
66
67
66
67
66
67
66
67
66
66
66
66
66
66
66
66
66
66
66
66
66
66
66
66
66
65
66
66
67
66
67
66
67
66
67
67
68
67
68
67
68
67
68
67
68
67
67
67
67
66
66
67
66
67
66
66
66
67
66
67
66
67
67
68
67
68
67
68
67
68
67
68
68
68
67
68
67
68
67
67
66
66
66
66
66
66
66
66
66
66
67
66
67
66
67
66
66
66
68
67
67
66
67
67
67
66
67
66
67
66
67
66
67
67
67
67
67
66
67
67
67
67
67
68
67
67
66
67
66
67
66
67
67
67
67
68
67
67
67
67
67
68
67
68
67
68
67
67
67
67
66
67
66
66
66
66
66
66
66
66
66
66
67
66
67
67
67
67
68
67
68
67
68
67
68
67
68
67
68
67
68
67
67
67
67
67
67
67
67
67
67
67
66
66
66
66
66
67
66
67
65
66
66
67
67
67
66
67
66
67
66
67
66
67
67
68
67
67
67
68
67
67
67
67
67
67
67
67
67
67
67
67
68
67
68
67
68
67
68
67
67
